15.00000 63937.000
15.01500 63521.000
15.03000 63889.000
15.04500 63922.000
15.06000 63559.000
15.07500 63651.000
15.09000 63551.000
15.10500 63250.000
15.12000 63749.000
15.13500 63642.000
15.15000 63672.000
15.16500 63759.000
15.18000 63902.000
15.19500 63904.000
15.21000 63891.000
15.22500 63624.000
15.24000 63507.000
15.25500 63801.000
15.27000 63947.000
15.28500 63808.000
15.30000 63830.000
15.31500 63969.000
15.33000 63658.000
15.34500 63880.000
15.36000 63964.000
15.37500 64007.000
15.39000 63821.000
15.40500 63801.000
15.42000 63723.000
15.43500 63699.000
15.45000 63407.000
15.46500 63702.000
15.48000 63745.000
15.49500 63475.000
15.51000 63555.000
15.52500 63653.000
15.54000 63225.000
15.55500 63399.000
15.57000 64010.000
15.58500 63734.000
15.60000 63483.000
15.61500 63656.000
15.63000 63699.000
15.64500 63558.000
15.66000 63626.000
15.67500 63416.000
15.69000 63621.000
15.70500 63606.000
15.72000 63967.000
15.73500 63958.000
15.75000 63734.000
15.76500 63685.000
15.78000 63571.000
15.79500 63393.000
15.81000 63374.000
15.82500 63559.000
15.84000 63746.000
15.85500 63652.000
15.87000 63583.000
15.88500 63647.000
15.90000 63647.000
15.91500 63490.000
15.93000 63605.000
15.94500 63417.000
15.96000 63446.000
15.97500 63689.000
15.99000 63569.000
16.00500 63214.000
16.02000 63235.000
16.03500 63456.000
16.05000 63938.000
16.06500 63718.000
16.08000 63704.000
16.09500 63261.000
16.11000 63582.000
16.12500 63654.000
16.14000 63399.000
16.15500 63528.000
16.17000 63822.000
16.18500 63715.000
16.20000 63319.000
16.21500 63341.000
16.23000 63650.000
16.24500 63526.000
16.26000 63338.000
16.27500 63239.000
16.29000 63557.000
16.30500 63336.000
16.32000 63375.000
16.33500 63545.000
16.35000 63812.000
16.36500 63691.000
16.38000 63443.000
16.39500 63221.000
16.41000 63608.000
16.42500 63805.000
16.44000 63474.000
16.45500 63474.000
16.47000 63601.000
16.48500 63555.000
16.50000 63482.000
16.51500 63827.000
16.53000 63756.000
16.54500 64055.000
16.56000 63872.000
16.57500 63350.000
16.59000 63485.000
16.60500 63683.000
16.62000 63613.000
16.63500 63317.000
16.65000 63711.000
16.66500 63335.000
16.68000 63188.000
16.69500 63586.000
16.71000 63334.000
16.72500 63437.000
16.74000 63510.000
16.75500 63288.000
16.77000 63417.000
16.78500 63234.000
16.80000 63687.000
16.81500 63323.000
16.83000 63134.000
16.84500 63260.000
16.86000 63217.000
16.87500 63193.000
16.89000 63954.000
16.90500 63545.000
16.92000 63634.000
16.93500 63147.000
16.95000 63609.000
16.96500 63412.000
16.98000 63530.000
16.99500 63219.000
17.01000 63567.000
17.02500 63610.000
17.04000 63554.000
17.05500 63486.000
17.07000 63073.000
17.08500 63146.000
17.10000 63256.000
17.11500 63096.000
17.13000 63180.000
17.14500 63719.000
17.16000 63313.000
17.17500 63542.000
17.19000 63614.000
17.20500 63391.000
17.22000 63434.000
17.23500 62912.000
17.25000 63071.000
17.26500 63302.000
17.28000 63328.000
17.29500 63263.000
17.31000 63447.000
17.32500 63124.000
17.34000 63335.000
17.35500 62818.000
17.37000 63262.000
17.38500 63539.000
17.40000 63163.000
17.41500 63295.000
17.43000 63344.000
17.44500 63094.000
17.46000 63519.000
17.47500 63134.000
17.49000 63315.000
17.50500 63340.000
17.52000 63260.000
17.53500 63559.000
17.55000 63397.000
17.56500 63175.000
17.58000 63252.000
17.59500 63323.000
17.61000 63524.000
17.62500 63224.000
17.64000 63289.000
17.65500 63058.000
17.67000 63303.000
17.68500 63685.000
17.70000 63243.000
17.71500 62873.000
17.73000 63339.000
17.74500 63136.000
17.76000 63214.000
17.77500 63126.000
17.79000 63335.000
17.80500 62854.000
17.82000 63100.000
17.83500 63375.000
17.85000 63568.000
17.86500 63549.000
17.88000 63314.000
17.89500 63071.000
17.91000 63288.000
17.92500 63424.000
17.94000 63519.000
17.95500 63496.000
17.97000 63261.000
17.98500 63552.000
18.00000 63495.000
18.01500 63374.000
18.03000 63035.000
18.04500 63001.000
18.06000 63164.000
18.07500 63326.000
18.09000 63741.000
18.10500 63083.000
18.12000 63123.000
18.13500 63221.000
18.15000 63287.000
18.16500 62781.000
18.18000 62974.000
18.19500 63385.000
18.21000 63345.000
18.22500 62973.000
18.24000 63089.000
18.25500 63233.000
18.27000 63036.000
18.28500 63557.000
18.30000 63509.000
18.31500 63147.000
18.33000 63013.000
18.34500 63176.000
18.36000 63228.000
18.37500 63233.000
18.39000 63202.000
18.40500 63069.000
18.42000 63145.000
18.43500 63231.000
18.45000 63413.000
18.46500 63599.000
18.48000 63244.000
18.49500 63281.000
18.51000 63418.000
18.52500 63176.000
18.54000 63178.000
18.55500 63023.000
18.57000 62764.000
18.58500 63567.000
18.60000 63302.000
18.61500 63404.000
18.63000 63476.000
18.64500 62739.000
18.66000 63207.000
18.67500 63089.000
18.69000 63382.000
18.70500 63151.000
18.72000 63129.000
18.73500 63129.000
18.75000 63169.000
18.76500 62936.000
18.78000 62917.000
18.79500 63146.000
18.81000 63370.000
18.82500 63492.000
18.84000 63073.000
18.85500 63157.000
18.87000 63086.000
18.88500 62870.000
18.90000 63153.000
18.91500 62651.000
18.93000 63008.000
18.94500 63283.000
18.96000 63084.000
18.97500 63050.000
18.99000 62897.000
19.00500 62925.000
19.02000 62997.000
19.03500 62874.000
19.05000 63218.000
19.06500 62987.000
19.08000 63086.000
19.09500 63115.000
19.11000 63194.000
19.12500 62982.000
19.14000 62958.000
19.15500 63235.000
19.17000 63182.000
19.18500 63115.000
19.20000 63095.000
19.21500 62883.000
19.23000 62878.000
19.24500 62807.000
19.26000 63190.000
19.27500 63195.000
19.29000 63331.000
19.30500 63093.000
19.32000 63078.000
19.33500 62824.000
19.35000 63005.000
19.36500 62922.000
19.38000 62696.000
19.39500 63227.000
19.41000 63061.000
19.42500 62660.000
19.44000 62591.000
19.45500 62665.000
19.47000 62788.000
19.48500 63184.000
19.50000 62864.000
19.51500 63299.000
19.53000 63178.000
19.54500 63218.000
19.56000 63260.000
19.57500 62828.000
19.59000 62698.000
19.60500 62791.000
19.62000 63022.000
19.63500 62925.000
19.65000 62725.000
19.66500 62929.000
19.68000 63145.000
19.69500 62939.000
19.71000 63125.000
19.72500 63175.000
19.74000 63046.000
19.75500 63175.000
19.77000 63251.000
19.78500 62940.000
19.80000 63026.000
19.81500 62979.000
19.83000 63138.000
19.84500 63028.000
19.86000 62949.000
19.87500 63189.000
19.89000 63291.000
19.90500 63444.000
19.92000 62721.000
19.93500 63047.000
19.95000 63001.000
19.96500 62886.000
19.98000 62834.000
19.99500 63133.000
20.01000 63144.000
20.02500 63052.000
20.04000 63023.000
20.05500 62703.000
20.07000 62842.000
20.08500 62619.000
20.10000 62763.000
20.11500 63051.000
20.13000 62728.000
20.14500 62702.000
20.16000 62337.000
20.17500 62615.000
20.19000 63010.000
20.20500 63077.000
20.22000 62921.000
20.23500 62732.000
20.25000 62994.000
20.26500 62850.000
20.28000 62956.000
20.29500 62774.000
20.31000 62445.000
20.32500 62796.000
20.34000 63362.000
20.35500 62818.000
20.37000 62893.000
20.38500 63103.000
20.40000 63021.000
20.41500 62899.000
20.43000 63419.000
20.44500 62968.000
20.46000 62711.000
20.47500 62976.000
20.49000 63438.000
20.50500 63079.000
20.52000 63201.000
20.53500 63077.000
20.55000 63039.000
20.56500 63149.000
20.58000 63076.000
20.59500 62850.000
20.61000 62853.000
20.62500 62896.000
20.64000 62837.000
20.65500 63066.000
20.67000 62931.000
20.68500 62948.000
20.70000 62983.000
20.71500 62945.000
20.73000 62893.000
20.74500 63046.000
20.76000 63068.000
20.77500 62734.000
20.79000 63015.000
20.80500 63341.000
20.82000 62817.000
20.83500 62556.000
20.85000 62866.000
20.86500 63129.000
20.88000 63024.000
20.89500 62841.000
20.91000 62847.000
20.92500 63044.000
20.94000 63149.000
20.95500 63317.000
20.97000 62795.000
20.98500 63016.000
21.00000 63308.000
21.01500 63152.000
21.03000 62582.000
21.04500 62280.000
21.06000 62740.000
21.07500 62622.000
21.09000 63048.000
21.10500 62578.000
21.12000 62788.000
21.13500 63161.000
21.15000 62897.000
21.16500 62740.000
21.18000 63061.000
21.19500 62801.000
21.21000 63002.000
21.22500 62854.000
21.24000 62624.000
21.25500 62486.000
21.27000 62820.000
21.28500 62748.000
21.30000 62914.000
21.31500 62933.000
21.33000 62832.000
21.34500 62625.000
21.36000 62983.000
21.37500 62760.000
21.39000 62494.000
21.40500 62774.000
21.42000 63268.000
21.43500 62374.000
21.45000 62665.000
21.46500 63055.000
21.48000 62769.000
21.49500 62580.000
21.51000 62725.000
21.52500 62914.000
21.54000 63105.000
21.55500 62872.000
21.57000 63049.000
21.58500 63030.000
21.60000 63176.000
21.61500 63152.000
21.63000 63068.000
21.64500 62901.000
21.66000 62829.000
21.67500 62833.000
21.69000 63147.000
21.70500 62809.000
21.72000 62629.000
21.73500 62615.000
21.75000 62615.000
21.76500 62998.000
21.78000 62866.000
21.79500 63151.000
21.81000 62983.000
21.82500 62862.000
21.84000 62953.000
21.85500 62807.000
21.87000 63008.000
21.88500 62984.000
21.90000 62662.000
21.91500 62753.000
21.93000 62606.000
21.94500 62745.000
21.96000 62976.000
21.97500 62806.000
21.99000 62542.000
22.00500 62608.000
22.02000 62996.000
22.03500 62946.000
22.05000 62669.000
22.06500 62878.000
22.08000 63132.000
22.09500 63132.000
22.11000 62741.000
22.12500 62589.000
22.14000 62588.000
22.15500 63030.000
22.17000 62710.000
22.18500 62778.000
22.20000 62810.000
22.21500 62599.000
22.23000 62793.000
22.24500 62542.000
22.26000 62964.000
22.27500 62651.000
22.29000 62808.000
22.30500 62611.000
22.32000 62638.000
22.33500 62789.000
22.35000 62707.000
22.36500 63023.000
22.38000 62826.000
22.39500 62785.000
22.41000 63018.000
22.42500 62953.000
22.44000 62618.000
22.45500 62719.000
22.47000 62672.000
22.48500 62625.000
22.50000 63012.000
22.51500 62715.000
22.53000 62567.000
22.54500 62922.000
22.56000 63000.000
22.57500 62703.000
22.59000 62471.000
22.60500 62457.000
22.62000 62713.000
22.63500 62664.000
22.65000 62522.000
22.66500 62702.000
22.68000 63036.000
22.69500 62480.000
22.71000 62873.000
22.72500 62736.000
22.74000 62808.000
22.75500 62627.000
22.77000 62645.000
22.78500 62646.000
22.80000 62657.000
22.81500 62910.000
22.83000 62518.000
22.84500 62739.000
22.86000 62706.000
22.87500 62648.000
22.89000 62516.000
22.90500 63037.000
22.92000 62695.000
22.93500 62805.000
22.95000 62655.000
22.96500 62491.000
22.98000 62727.000
22.99500 62709.000
23.01000 62514.000
23.02500 62486.000
23.04000 62701.000
23.05500 62302.000
23.07000 62303.000
23.08500 62402.000
23.10000 62659.000
23.11500 62771.000
23.13000 62882.000
23.14500 62686.000
23.16000 63004.000
23.17500 62503.000
23.19000 62470.000
23.20500 62623.000
23.22000 62141.000
23.23500 62033.000
23.25000 62740.000
23.26500 62628.000
23.28000 62813.000
23.29500 63036.000
23.31000 62603.000
23.32500 62421.000
23.34000 62632.000
23.35500 62374.000
23.37000 62760.000
23.38500 62733.000
23.40000 62796.000
23.41500 62367.000
23.43000 62516.000
23.44500 62816.000
23.46000 62515.000
23.47500 62865.000
23.49000 62654.000
23.50500 62594.000
23.52000 62446.000
23.53500 62618.000
23.55000 62453.000
23.56500 62694.000
23.58000 63158.000
23.59500 62412.000
23.61000 62499.000
23.62500 62558.000
23.64000 62518.000
23.65500 62526.000
23.67000 62868.000
23.68500 62213.000
23.70000 62769.000
23.71500 62718.000
23.73000 62241.000
23.74500 62634.000
23.76000 62568.000
23.77500 62499.000
23.79000 62786.000
23.80500 62679.000
23.82000 62652.000
23.83500 62375.000
23.85000 62585.000
23.86500 62422.000
23.88000 62618.000
23.89500 62555.000
23.91000 61911.000
23.92500 62702.000
23.94000 62634.000
23.95500 62088.000
23.97000 62248.000
23.98500 62529.000
24.00000 62272.000
24.01500 62450.000
24.03000 62722.000
24.04500 62371.000
24.06000 62207.000
24.07500 62556.000
24.09000 62409.000
24.10500 62236.000
24.12000 62279.000
24.13500 62363.000
24.15000 62092.000
24.16500 62020.000
24.18000 62515.000
24.19500 62217.000
24.21000 62138.000
24.22500 62708.000
24.24000 62604.000
24.25500 62489.000
24.27000 62211.000
24.28500 62398.000
24.30000 62428.000
24.31500 62372.000
24.33000 62388.000
24.34500 62380.000
24.36000 62406.000
24.37500 62405.000
24.39000 62473.000
24.40500 62346.000
24.42000 62389.000
24.43500 62420.000
24.45000 62292.000
24.46500 62097.000
24.48000 62475.000
24.49500 62692.000
24.51000 62245.000
24.52500 62284.000
24.54000 61987.000
24.55500 62119.000
24.57000 62396.000
24.58500 62533.000
24.60000 62529.000
24.61500 62191.000
24.63000 62053.000
24.64500 62105.000
24.66000 62175.000
24.67500 62254.000
24.69000 62058.000
24.70500 62355.000
24.72000 62045.000
24.73500 62408.000
24.75000 62195.000
24.76500 61864.000
24.78000 62274.000
24.79500 62151.000
24.81000 61822.000
24.82500 62305.000
24.84000 62057.000
24.85500 62232.000
24.87000 62392.000
24.88500 62381.000
24.90000 62283.000
24.91500 62327.000
24.93000 62573.000
24.94500 62156.000
24.96000 62205.000
24.97500 62478.000
24.99000 62113.000
25.00500 61875.000
25.02000 62156.000
25.03500 62175.000
25.05000 62122.000
25.06500 61937.000
25.08000 62341.000
25.09500 62318.000
25.11000 62018.000
25.12500 62119.000
25.14000 62177.000
25.15500 62229.000
25.17000 62480.000
25.18500 62046.000
25.20000 62194.000
25.21500 62281.000
25.23000 62419.000
25.24500 62409.000
25.26000 62106.000
25.27500 62268.000
25.29000 62244.000
25.30500 62128.000
25.32000 62086.000
25.33500 62135.000
25.35000 61999.000
25.36500 62458.000
25.38000 62368.000
25.39500 62094.000
25.41000 61674.000
25.42500 62001.000
25.44000 62350.000
25.45500 62132.000
25.47000 62572.000
25.48500 62367.000
25.50000 62216.000
25.51500 62009.000
25.53000 62108.000
25.54500 61904.000
25.56000 62021.000
25.57500 62288.000
25.59000 62363.000
25.60500 62364.000
25.62000 62291.000
25.63500 61946.000
25.65000 61996.000
25.66500 62203.000
25.68000 62500.000
25.69500 62232.000
25.71000 61972.000
25.72500 62107.000
25.74000 62506.000
25.75500 62428.000
25.77000 62414.000
25.78500 62766.000
25.80000 62437.000
25.81500 62200.000
25.83000 61964.000
25.84500 61944.000
25.86000 62250.000
25.87500 61989.000
25.89000 62022.000
25.90500 62229.000
25.92000 61968.000
25.93500 61836.000
25.95000 61933.000
25.96500 61927.000
25.98000 61538.000
25.99500 61755.000
26.01000 61755.000
26.02500 61690.000
26.04000 62100.000
26.05500 61984.000
26.07000 61898.000
26.08500 61686.000
26.10000 61895.000
26.11500 61936.000
26.13000 61984.000
26.14500 62060.000
26.16000 62353.000
26.17500 62039.000
26.19000 61573.000
26.20500 61458.000
26.22000 61727.000
26.23500 61503.000
26.25000 61655.000
26.26500 61857.000
26.28000 61730.000
26.29500 61941.000
26.31000 61589.000
26.32500 61941.000
26.34000 61807.000
26.35500 61690.000
26.37000 61763.000
26.38500 61938.000
26.40000 61242.000
26.41500 61669.000
26.43000 61613.000
26.44500 61891.000
26.46000 61931.000
26.47500 61700.000
26.49000 61487.000
26.50500 61690.000
26.52000 61718.000
26.53500 61851.000
26.55000 61855.000
26.56500 61453.000
26.58000 61374.000
26.59500 61937.000
26.61000 61692.000
26.62500 61187.000
26.64000 61902.000
26.65500 61742.000
26.67000 61388.000
26.68500 61925.000
26.70000 61355.000
26.71500 61452.000
26.73000 61431.000
26.74500 61268.000
26.76000 61973.000
26.77500 61521.000
26.79000 61393.000
26.80500 61613.000
26.82000 61666.000
26.83500 61847.000
26.85000 61529.000
26.86500 61292.000
26.88000 61186.000
26.89500 61320.000
26.91000 61490.000
26.92500 61314.000
26.94000 61530.000
26.95500 61309.000
26.97000 61650.000
26.98500 61362.000
27.00000 61631.000
27.01500 61505.000
27.03000 61353.000
27.04500 61375.000
27.06000 61273.000
27.07500 61534.000
27.09000 61757.000
27.10500 61453.000
27.12000 61081.000
27.13500 61549.000
27.15000 61238.000
27.16500 61537.000
27.18000 61217.000
27.19500 61028.000
27.21000 60726.000
27.22500 61180.000
27.24000 60663.000
27.25500 61002.000
27.27000 61610.000
27.28500 61260.000
27.30000 61080.000
27.31500 61471.000
27.33000 61424.000
27.34500 61132.000
27.36000 61215.000
27.37500 61177.000
27.39000 61408.000
27.40500 61789.000
27.42000 61338.000
27.43500 61240.000
27.45000 61554.000
27.46500 61194.000
27.48000 61179.000
27.49500 61370.000
27.51000 61420.000
27.52500 61365.000
27.54000 61432.000
27.55500 61685.000
27.57000 61251.000
27.58500 61057.000
27.60000 61184.000
27.61500 61466.000
27.63000 61023.000
27.64500 60991.000
27.66000 60947.000
27.67500 61206.000
27.69000 61134.000
27.70500 60777.000
27.72000 61213.000
27.73500 61198.000
27.75000 61029.000
27.76500 61366.000
27.78000 61354.000
27.79500 61169.000
27.81000 61299.000
27.82500 61513.000
27.84000 60833.000
27.85500 60914.000
27.87000 61415.000
27.88500 61110.000
27.90000 60825.000
27.91500 61289.000
27.93000 61030.000
27.94500 60999.000
27.96000 61210.000
27.97500 61333.000
27.99000 61254.000
28.00500 61298.000
28.02000 60891.000
28.03500 61238.000
28.05000 61281.000
28.06500 61164.000
28.08000 61363.000
28.09500 60803.000
28.11000 60863.000
28.12500 61094.000
28.14000 60812.000
28.15500 60762.000
28.17000 61008.000
28.18500 60852.000
28.20000 60970.000
28.21500 60948.000
28.23000 60903.000
28.24500 60897.000
28.26000 61002.000
28.27500 60986.000
28.29000 60953.000
28.30500 60527.000
28.32000 60757.000
28.33500 60570.000
28.35000 60588.000
28.36500 60956.000
28.38000 60737.000
28.39500 60677.000
28.41000 60727.000
28.42500 60788.000
28.44000 60857.000
28.45500 60407.000
28.47000 60517.000
28.48500 60592.000
28.50000 61108.000
28.51500 61307.000
28.53000 60986.000
28.54500 60918.000
28.56000 60889.000
28.57500 61049.000
28.59000 60685.000
28.60500 60971.000
28.62000 60800.000
28.63500 60865.000
28.65000 60838.000
28.66500 61028.000
28.68000 60880.000
28.69500 60676.000
28.71000 60881.000
28.72500 61348.000
28.74000 61089.000
28.75500 61034.000
28.77000 60906.000
28.78500 60588.000
28.80000 60931.000
28.81500 60762.000
28.83000 60820.000
28.84500 60814.000
28.86000 60774.000
28.87500 60537.000
28.89000 60839.000
28.90500 61106.000
28.92000 60948.000
28.93500 60708.000
28.95000 60806.000
28.96500 61169.000
28.98000 61122.000
28.99500 61033.000
29.01000 60727.000
29.02500 60685.000
29.04000 60601.000
29.05500 60676.000
29.07000 60707.000
29.08500 60330.000
29.10000 60581.000
29.11500 60320.000
29.13000 60523.000
29.14500 60767.000
29.16000 60667.000
29.17500 60703.000
29.19000 60682.000
29.20500 60670.000
29.22000 60816.000
29.23500 60636.000
29.25000 60488.000
29.26500 60589.000
29.28000 60458.000
29.29500 60764.000
29.31000 60816.000
29.32500 60863.000
29.34000 60898.000
29.35500 60207.000
29.37000 60616.000
29.38500 60784.000
29.40000 60656.000
29.41500 60685.000
29.43000 60703.000
29.44500 60617.000
29.46000 60625.000
29.47500 60194.000
29.49000 60481.000
29.50500 60618.000
29.52000 60309.000
29.53500 60633.000
29.55000 60246.000
29.56500 60542.000
29.58000 60591.000
29.59500 60561.000
29.61000 60604.000
29.62500 60499.000
29.64000 60606.000
29.65500 60858.000
29.67000 60388.000
29.68500 60267.000
29.70000 60401.000
29.71500 59891.000
29.73000 60697.000
29.74500 60820.000
29.76000 60391.000
29.77500 60642.000
29.79000 60893.000
29.80500 60626.000
29.82000 60337.000
29.83500 60487.000
29.85000 60476.000
29.86500 60415.000
29.88000 60527.000
29.89500 60242.000
29.91000 60715.000
29.92500 60321.000
29.94000 60350.000
29.95500 60585.000
29.97000 60544.000
29.98500 60441.000
30.00000 60455.000
30.01500 60573.000
30.03000 60298.000
30.04500 60254.000
30.06000 60379.000
30.07500 59972.000
30.09000 60126.000
30.10500 60362.000
30.12000 60551.000
30.13500 60583.000
30.15000 60561.000
30.16500 60493.000
30.18000 60335.000
30.19500 60373.000
30.21000 59927.000
30.22500 60109.000
30.24000 60031.000
30.25500 60197.000
30.27000 60117.000
30.28500 60348.000
30.30000 60571.000
30.31500 60419.000
30.33000 60438.000
30.34500 60225.000
30.36000 60553.000
30.37500 60198.000
30.39000 60208.000
30.40500 60323.000
30.42000 60441.000
30.43500 60510.000
30.45000 60059.000
30.46500 60226.000
30.48000 60525.000
30.49500 60363.000
30.51000 60229.000
30.52500 60005.000
30.54000 59932.000
30.55500 60206.000
30.57000 59991.000
30.58500 60115.000
30.60000 60214.000
30.61500 60113.000
30.63000 60190.000
30.64500 60283.000
30.66000 60353.000
30.67500 60419.000
30.69000 59873.000
30.70500 60090.000
30.72000 60464.000
30.73500 60087.000
30.75000 60124.000
30.76500 60099.000
30.78000 60167.000
30.79500 59783.000
30.81000 59931.000
30.82500 59918.000
30.84000 60137.000
30.85500 60607.000
30.87000 60486.000
30.88500 60390.000
30.90000 60306.000
30.91500 60532.000
30.93000 60424.000
30.94500 60485.000
30.96000 60089.000
30.97500 59955.000
30.99000 59983.000
31.00500 60132.000
31.02000 60332.000
31.03500 59966.000
31.05000 60137.000
31.06500 59997.000
31.08000 60384.000
31.09500 60428.000
31.11000 59785.000
31.12500 59720.000
31.14000 59928.000
31.15500 60141.000
31.17000 59989.000
31.18500 60215.000
31.20000 59910.000
31.21500 59699.000
31.23000 60183.000
31.24500 59851.000
31.26000 59773.000
31.27500 60231.000
31.29000 60307.000
31.30500 59992.000
31.32000 60116.000
31.33500 60217.000
31.35000 59953.000
31.36500 60306.000
31.38000 60047.000
31.39500 59913.000
31.41000 59896.000
31.42500 59896.000
31.44000 59991.000
31.45500 59925.000
31.47000 59655.000
31.48500 59722.000
31.50000 59741.000
31.51500 59829.000
31.53000 59885.000
31.54500 59907.000
31.56000 59585.000
31.57500 60039.000
31.59000 60032.000
31.60500 59535.000
31.62000 59446.000
31.63500 59789.000
31.65000 60085.000
31.66500 59825.000
31.68000 59765.000
31.69500 59596.000
31.71000 60004.000
31.72500 60035.000
31.74000 59438.000
31.75500 59498.000
31.77000 59528.000
31.78500 59588.000
31.80000 60016.000
31.81500 60070.000
31.83000 59591.000
31.84500 59618.000
31.86000 59752.000
31.87500 59688.000
31.89000 59974.000
31.90500 59613.000
31.92000 59986.000
31.93500 59761.000
31.95000 59448.000
31.96500 59359.000
31.98000 59744.000
31.99500 59920.000
32.01000 59839.000
32.02500 59813.000
32.04000 59925.000
32.05500 59566.000
32.07000 59529.000
32.08500 59663.000
32.10000 59742.000
32.11500 59927.000
32.13000 59310.000
32.14500 59339.000
32.16000 59084.000
32.17500 59284.000
32.19000 59307.000
32.20500 59479.000
32.22000 59591.000
32.23500 59382.000
32.25000 59157.000
32.26500 59720.000
32.28000 59241.000
32.29500 59631.000
32.31000 59594.000
32.32500 59363.000
32.34000 59616.000
32.35500 59470.000
32.37000 59371.000
32.38500 59334.000
32.40000 59420.000
32.41500 59268.000
32.43000 59361.000
32.44500 59262.000
32.46000 59135.000
32.47500 59080.000
32.49000 59637.000
32.50500 59661.000
32.52000 59200.000
32.53500 59378.000
32.55000 59561.000
32.56500 59169.000
32.58000 59300.000
32.59500 59115.000
32.61000 59341.000
32.62500 59296.000
32.64000 59456.000
32.65500 59266.000
32.67000 59567.000
32.68500 59130.000
32.70000 59273.000
32.71500 59494.000
32.73000 59658.000
32.74500 59106.000
32.76000 59271.000
32.77500 59529.000
32.79000 59354.000
32.80500 58969.000
32.82000 59271.000
32.83500 59075.000
32.85000 59740.000
32.86500 59254.000
32.88000 59005.000
32.89500 59309.000
32.91000 59176.000
32.92500 59169.000
32.94000 59327.000
32.95500 59194.000
32.97000 58777.000
32.98500 58783.000
33.00000 58959.000
33.01500 59147.000
33.03000 59120.000
33.04500 59440.000
33.06000 59326.000
33.07500 59581.000
33.09000 58914.000
33.10500 58959.000
33.12000 59711.000
33.13500 59084.000
33.15000 59354.000
33.16500 59365.000
33.18000 58749.000
33.19500 59034.000
33.21000 59275.000
33.22500 59258.000
33.24000 59032.000
33.25500 59137.000
33.27000 59000.000
33.28500 59104.000
33.30000 59038.000
33.31500 59220.000
33.33000 59205.000
33.34500 59315.000
33.36000 59253.000
33.37500 59273.000
33.39000 59514.000
33.40500 58884.000
33.42000 58885.000
33.43500 58771.000
33.45000 58623.000
33.46500 59176.000
33.48000 59261.000
33.49500 59226.000
33.51000 59359.000
33.52500 59204.000
33.54000 59637.000
33.55500 59353.000
33.57000 58999.000
33.58500 58868.000
33.60000 58927.000
33.61500 59116.000
33.63000 58959.000
33.64500 58817.000
33.66000 58883.000
33.67500 59132.000
33.69000 59218.000
33.70500 58922.000
33.72000 59072.000
33.73500 58925.000
33.75000 58911.000
33.76500 58914.000
33.78000 59024.000
33.79500 58986.000
33.81000 58650.000
33.82500 58446.000
33.84000 58646.000
33.85500 58916.000
33.87000 58783.000
33.88500 58859.000
33.90000 58877.000
33.91500 58758.000
33.93000 58834.000
33.94500 58888.000
33.96000 58716.000
33.97500 59102.000
33.99000 58971.000
34.00500 58807.000
34.02000 59160.000
34.03500 59183.000
34.05000 59259.000
34.06500 58752.000
34.08000 58960.000
34.09500 58896.000
34.11000 58493.000
34.12500 58872.000
34.14000 58906.000
34.15500 58990.000
34.17000 58799.000
34.18500 58783.000
34.20000 58313.000
34.21500 58944.000
34.23000 58427.000
34.24500 58563.000
34.26000 58691.000
34.27500 58912.000
34.29000 58900.000
34.30500 58670.000
34.32000 58771.000
34.33500 58864.000
34.35000 58948.000
34.36500 58748.000
34.38000 58930.000
34.39500 58625.000
34.41000 58773.000
34.42500 59231.000
34.44000 58950.000
34.45500 59052.000
34.47000 59082.000
34.48500 59088.000
34.50000 58627.000
34.51500 58818.000
34.53000 58728.000
34.54500 58481.000
34.56000 58879.000
34.57500 58531.000
34.59000 58014.000
34.60500 58449.000
34.62000 58363.000
34.63500 58388.000
34.65000 58696.000
34.66500 58751.000
34.68000 58599.000
34.69500 58744.000
34.71000 58402.000
34.72500 58625.000
34.74000 59052.000
34.75500 58718.000
34.77000 58672.000
34.78500 58818.000
34.80000 58460.000
34.81500 58167.000
34.83000 58596.000
34.84500 58670.000
34.86000 58178.000
34.87500 58476.000
34.89000 58530.000
34.90500 58296.000
34.92000 58565.000
34.93500 58611.000
34.95000 58379.000
34.96500 58610.000
34.98000 58295.000
34.99500 58076.000
35.01000 58271.000
35.02500 58616.000
35.04000 58533.000
35.05500 58654.000
35.07000 58718.000
35.08500 58534.000
35.10000 58653.000
35.11500 58394.000
35.13000 58612.000
35.14500 58324.000
35.16000 58451.000
35.17500 58567.000
35.19000 58763.000
35.20500 58249.000
35.22000 58414.000
35.23500 58501.000
35.25000 58310.000
35.26500 58584.000
35.28000 58232.000
35.29500 58186.000
35.31000 58405.000
35.32500 58674.000
35.34000 58934.000
35.35500 58457.000
35.37000 58303.000
35.38500 58259.000
35.40000 57978.000
35.41500 58515.000
35.43000 58645.000
35.44500 58599.000
35.46000 58439.000
35.47500 58400.000
35.49000 58202.000
35.50500 58331.000
35.52000 58175.000
35.53500 58158.000
35.55000 58485.000
35.56500 58314.000
35.58000 58207.000
35.59500 58402.000
35.61000 58273.000
35.62500 58358.000
35.64000 58727.000
35.65500 58616.000
35.67000 58592.000
35.68500 58615.000
35.70000 58448.000
35.71500 58758.000
35.73000 58480.000
35.74500 58368.000
35.76000 58332.000
35.77500 58611.000
35.79000 58434.000
35.80500 58317.000
35.82000 58487.000
35.83500 58471.000
35.85000 58571.000
35.86500 59127.000
35.88000 58819.000
35.89500 58447.000
35.91000 58583.000
35.92500 58027.000
35.94000 58517.000
35.95500 58651.000
35.97000 58180.000
35.98500 58290.000
36.00000 58479.000
36.01500 58380.000
36.03000 58244.000
36.04500 58486.000
36.06000 58573.000
36.07500 58865.000
36.09000 58504.000
36.10500 58619.000
36.12000 58531.000
36.13500 58469.000
36.15000 58328.000
36.16500 58788.000
36.18000 58921.000
36.19500 58602.000
36.21000 58345.000
36.22500 58507.000
36.24000 58473.000
36.25500 58370.000
36.27000 58180.000
36.28500 58295.000
36.30000 58225.000
36.31500 58307.000
36.33000 58373.000
36.34500 58560.000
36.36000 58736.000
36.37500 58354.000
36.39000 58215.000
36.40500 58957.000
36.42000 58849.000
36.43500 58750.000
36.45000 58387.000
36.46500 58775.000
36.48000 58545.000
36.49500 58826.000
36.51000 58231.000
36.52500 59003.000
36.54000 58952.000
36.55500 58796.000
36.57000 58490.000
36.58500 58612.000
36.60000 58769.000
36.61500 58655.000
36.63000 58376.000
36.64500 58373.000
36.66000 58689.000
36.67500 58727.000
36.69000 58616.000
36.70500 58462.000
36.72000 58352.000
36.73500 58850.000
36.75000 58806.000
36.76500 58461.000
36.78000 58708.000
36.79500 58696.000
36.81000 58609.000
36.82500 58133.000
36.84000 58224.000
36.85500 58445.000
36.87000 58372.000
36.88500 58220.000
36.90000 58108.000
36.91500 58015.000
36.93000 58131.000
36.94500 58269.000
36.96000 58693.000
36.97500 58443.000
36.99000 57968.000
37.00500 58129.000
37.02000 57997.000
37.03500 58335.000
37.05000 58545.000
37.06500 58175.000
37.08000 57861.000
37.09500 58194.000
37.11000 57974.000
37.12500 58304.000
37.14000 58037.000
37.15500 58280.000
37.17000 58049.000
37.18500 58288.000
37.20000 57996.000
37.21500 57964.000
37.23000 57797.000
37.24500 57751.000
37.26000 57760.000
37.27500 58060.000
37.29000 57676.000
37.30500 57799.000
37.32000 58066.000
37.33500 58004.000
37.35000 57861.000
37.36500 58162.000
37.38000 57822.000
37.39500 57898.000
37.41000 57949.000
37.42500 57820.000
37.44000 57756.000
37.45500 57993.000
37.47000 57602.000
37.48500 57671.000
37.50000 57908.000
37.51500 57872.000
37.53000 57765.000
37.54500 57837.000
37.56000 58105.000
37.57500 58335.000
37.59000 57894.000
37.60500 57579.000
37.62000 57782.000
37.63500 57805.000
37.65000 58102.000
37.66500 58046.000
37.68000 57838.000
37.69500 58034.000
37.71000 58083.000
37.72500 57881.000
37.74000 57817.000
37.75500 58070.000
37.77000 57806.000
37.78500 57562.000
37.80000 57914.000
37.81500 57619.000
37.83000 57971.000
37.84500 58013.000
37.86000 57620.000
37.87500 57466.000
37.89000 57750.000
37.90500 57683.000
37.92000 57712.000
37.93500 58102.000
37.95000 58250.000
37.96500 57907.000
37.98000 57791.000
37.99500 57610.000
38.01000 57745.000
38.02500 57755.000
38.04000 57560.000
38.05500 58163.000
38.07000 57806.000
38.08500 57626.000
38.10000 57845.000
38.11500 58075.000
38.13000 57490.000
38.14500 57793.000
38.16000 57637.000
38.17500 57823.000
38.19000 57633.000
38.20500 57708.000
38.22000 57836.000
38.23500 57619.000
38.25000 58142.000
38.26500 57977.000
38.28000 57760.000
38.29500 57535.000
38.31000 57769.000
38.32500 57897.000
38.34000 58020.000
38.35500 58095.000
38.37000 57293.000
38.38500 58031.000
38.40000 57876.000
38.41500 57732.000
38.43000 57551.000
38.44500 57672.000
38.46000 58007.000
38.47500 57976.000
38.49000 57408.000
38.50500 57691.000
38.52000 57916.000
38.53500 57828.000
38.55000 57882.000
38.56500 57729.000
38.58000 57396.000
38.59500 57222.000
38.61000 57265.000
38.62500 57431.000
38.64000 57799.000
38.65500 57354.000
38.67000 57401.000
38.68500 57863.000
38.70000 58090.000
38.71500 57859.000
38.73000 57798.000
38.74500 57739.000
38.76000 57762.000
38.77500 57622.000
38.79000 57723.000
38.80500 57780.000
38.82000 57887.000
38.83500 57716.000
38.85000 57449.000
38.86500 57458.000
38.88000 57782.000
38.89500 57581.000
38.91000 57857.000
38.92500 57788.000
38.94000 57531.000
38.95500 57762.000
38.97000 57695.000
38.98500 57635.000
39.00000 58062.000
39.01500 58010.000
39.03000 58001.000
39.04500 57499.000
39.06000 57926.000
39.07500 57700.000
39.09000 57614.000
39.10500 57622.000
39.12000 57560.000
39.13500 57753.000
39.15000 57676.000
39.16500 57262.000
39.18000 57825.000
39.19500 58009.000
39.21000 57731.000
39.22500 57726.000
39.24000 57490.000
39.25500 57704.000
39.27000 57750.000
39.28500 57449.000
39.30000 57650.000
39.31500 57766.000
39.33000 57816.000
39.34500 57579.000
39.36000 57659.000
39.37500 57803.000
39.39000 58117.000
39.40500 57896.000
39.42000 57645.000
39.43500 57806.000
39.45000 57632.000
39.46500 57632.000
39.48000 57514.000
39.49500 57807.000
39.51000 57861.000
39.52500 57919.000
39.54000 57705.000
39.55500 57511.000
39.57000 58025.000
39.58500 57623.000
39.60000 57318.000
39.61500 57634.000
39.63000 57698.000
39.64500 57838.000
39.66000 57754.000
39.67500 57118.000
39.69000 57481.000
39.70500 57916.000
39.72000 57551.000
39.73500 57445.000
39.75000 57568.000
39.76500 57619.000
39.78000 57625.000
39.79500 57696.000
39.81000 57741.000
39.82500 58300.000
39.84000 57761.000
39.85500 57525.000
39.87000 57764.000
39.88500 57224.000
39.90000 57366.000
39.91500 57737.000
39.93000 57433.000
39.94500 57872.000
39.96000 57888.000
39.97500 57459.000
39.99000 57598.000
40.00500 57788.000
40.02000 57563.000
40.03500 57616.000
40.05000 57740.000
40.06500 57636.000
40.08000 57531.000
40.09500 57558.000
40.11000 57794.000
40.12500 57996.000
40.14000 57910.000
40.15500 57651.000
40.17000 57360.000
40.18500 57757.000
40.20000 57785.000
40.21500 57838.000
40.23000 57731.000
40.24500 57322.000
40.26000 57518.000
40.27500 57525.000
40.29000 57573.000
40.30500 57806.000
40.32000 57608.000
40.33500 57995.000
40.35000 58122.000
40.36500 57709.000
40.38000 57111.000
40.39500 57454.000
40.41000 57758.000
40.42500 57585.000
40.44000 57494.000
40.45500 57841.000
40.47000 57626.000
40.48500 57706.000
40.50000 58173.000
40.51500 57737.000
40.53000 57710.000
40.54500 57911.000
40.56000 57959.000
40.57500 57566.000
40.59000 58203.000
40.60500 58041.000
40.62000 57729.000
40.63500 58165.000
40.65000 57839.000
40.66500 57568.000
40.68000 57782.000
40.69500 58090.000
40.71000 58013.000
40.72500 58032.000
40.74000 58002.000
40.75500 57610.000
40.77000 57507.000
40.78500 57726.000
40.80000 57853.000
40.81500 57946.000
40.83000 57828.000
40.84500 57381.000
40.86000 57849.000
40.87500 57477.000
40.89000 57503.000
40.90500 57610.000
40.92000 58122.000
40.93500 57864.000
40.95000 57916.000
40.96500 58360.000
40.98000 57843.000
40.99500 57728.000
41.01000 57850.000
41.02500 58054.000
41.04000 57697.000
41.05500 57969.000
41.07000 58064.000
41.08500 58333.000
41.10000 57990.000
41.11500 58140.000
41.13000 57673.000
41.14500 57965.000
41.16000 58249.000
41.17500 57944.000
41.19000 57945.000
41.20500 58359.000
41.22000 58153.000
41.23500 57843.000
41.25000 57846.000
41.26500 58562.000
41.28000 58290.000
41.29500 58065.000
41.31000 57964.000
41.32500 57997.000
41.34000 58307.000
41.35500 58477.000
41.37000 58505.000
41.38500 58266.000
41.40000 58118.000
41.41500 58558.000
41.43000 58668.000
41.44500 58411.000
41.46000 58192.000
41.47500 58505.000
41.49000 58977.000
41.50500 59097.000
41.52000 58942.000
41.53500 58844.000
41.55000 58615.000
41.56500 58862.000
41.58000 58796.000
41.59500 58886.000
41.61000 59473.000
41.62500 59012.000
41.64000 58598.000
41.65500 58741.000
41.67000 58504.000
41.68500 59024.000
41.70000 59293.000
41.71500 59172.000
41.73000 59033.000
41.74500 58874.000
41.76000 58682.000
41.77500 58674.000
41.79000 58494.000
41.80500 58980.000
41.82000 59068.000
41.83500 58696.000
41.85000 58890.000
41.86500 58756.000
41.88000 58601.000
41.89500 59119.000
41.91000 58863.000
41.92500 59046.000
41.94000 59183.000
41.95500 59010.000
41.97000 59339.000
41.98500 59192.000
42.00000 58912.000
42.01500 59181.000
42.03000 59030.000
42.04500 58811.000
42.06000 58971.000
42.07500 58929.000
42.09000 59367.000
42.10500 59266.000
42.12000 59189.000
42.13500 59060.000
42.15000 59325.000
42.16500 59525.000
42.18000 59173.000
42.19500 59047.000
42.21000 59376.000
42.22500 59141.000
42.24000 59176.000
42.25500 59514.000
42.27000 59152.000
42.28500 59261.000
42.30000 59103.000
42.31500 59413.000
42.33000 59335.000
42.34500 58970.000
42.36000 59291.000
42.37500 59449.000
42.39000 59486.000
42.40500 59522.000
42.42000 59382.000
42.43500 59420.000
42.45000 59366.000
42.46500 59613.000
42.48000 59659.000
42.49500 59437.000
42.51000 59399.000
42.52500 59655.000
42.54000 59354.000
42.55500 59137.000
42.57000 59051.000
42.58500 59938.000
42.60000 59499.000
42.61500 59342.000
42.63000 59743.000
42.64500 59259.000
42.66000 59605.000
42.67500 59927.000
42.69000 59802.000
42.70500 59713.000
42.72000 59474.000
42.73500 59705.000
42.75000 59451.000
42.76500 59642.000
42.78000 59325.000
42.79500 59389.000
42.81000 59569.000
42.82500 59130.000
42.84000 59242.000
42.85500 59677.000
42.87000 59568.000
42.88500 59732.000
42.90000 59373.000
42.91500 59339.000
42.93000 59358.000
42.94500 59141.000
42.96000 59417.000
42.97500 59672.000
42.99000 59272.000
43.00500 59302.000
43.02000 59575.000
43.03500 59453.000
43.05000 59601.000
43.06500 59808.000
43.08000 59518.000
43.09500 59499.000
43.11000 59642.000
43.12500 59536.000
43.14000 59728.000
43.15500 59472.000
43.17000 60118.000
43.18500 59682.000
43.20000 60412.000
43.21500 60043.000
43.23000 59638.000
43.24500 59621.000
43.26000 59872.000
43.27500 60125.000
43.29000 60399.000
43.30500 60452.000
43.32000 60425.000
43.33500 60114.000
43.35000 60163.000
43.36500 60313.000
43.38000 60117.000
43.39500 60110.000
43.41000 60232.000
43.42500 60262.000
43.44000 60360.000
43.45500 60561.000
43.47000 60621.000
43.48500 60287.000
43.50000 60448.000
43.51500 60860.000
43.53000 60492.000
43.54500 60488.000
43.56000 60746.000
43.57500 60966.000
43.59000 60662.000
43.60500 60654.000
43.62000 61099.000
43.63500 61101.000
43.65000 61423.000
43.66500 61266.000
43.68000 61211.000
43.69500 61425.000
43.71000 61490.000
43.72500 61919.000
43.74000 61758.000
43.75500 61774.000
43.77000 61972.000
43.78500 62395.000
43.80000 62156.000
43.81500 62204.000
43.83000 62498.000
43.84500 62741.000
43.86000 62837.000
43.87500 63306.000
43.89000 63403.000
43.90500 63729.000
43.92000 63881.000
43.93500 63812.000
43.95000 63952.000
43.96500 64554.000
43.98000 64682.000
43.99500 65316.000
44.01000 65258.000
44.02500 65640.000
44.04000 65880.000
44.05500 66575.000
44.07000 66982.000
44.08500 67727.000
44.10000 68534.000
44.11500 69634.000
44.13000 70604.000
44.14500 71825.000
44.16000 72980.000
44.17500 74228.000
44.19000 75630.000
44.20500 76348.000
44.22000 76743.000
44.23500 76774.000
44.25000 76377.000
44.26500 75784.000
44.28000 74745.000
44.29500 73605.000
44.31000 72508.000
44.32500 71799.000
44.34000 71031.000
44.35500 70121.000
44.37000 69873.000
44.38500 69224.000
44.40000 68358.000
44.41500 68002.000
44.43000 66945.000
44.44500 66566.000
44.46000 66441.000
44.47500 65605.000
44.49000 65341.000
44.50500 64886.000
44.52000 64455.000
44.53500 64810.000
44.55000 64821.000
44.56500 64093.000
44.58000 63804.000
44.59500 63560.000
44.61000 63220.000
44.62500 63112.000
44.64000 62896.000
44.65500 63017.000
44.67000 62811.000
44.68500 62709.000
44.70000 62553.000
44.71500 62280.000
44.73000 62333.000
44.74500 62003.000
44.76000 62076.000
44.77500 62100.000
44.79000 61678.000
44.80500 61731.000
44.82000 61629.000
44.83500 61923.000
44.85000 61505.000
44.86500 61476.000
44.88000 61287.000
44.89500 61332.000
44.91000 61379.000
44.92500 61159.000
44.94000 61247.000
44.95500 61178.000
44.97000 60859.000
44.98500 61099.000
45.00000 61157.000
45.01500 61009.000
45.03000 60925.000
45.04500 60760.000
45.06000 60817.000
45.07500 60902.000
45.09000 60702.000
45.10500 60648.000
45.12000 60252.000
45.13500 60512.000
45.15000 60258.000
45.16500 59982.000
45.18000 60354.000
45.19500 60312.000
45.21000 60223.000
45.22500 60185.000
45.24000 60012.000
45.25500 59922.000
45.27000 60233.000
45.28500 59982.000
45.30000 60054.000
45.31500 60062.000
45.33000 60063.000
45.34500 59938.000
45.36000 59913.000
45.37500 59753.000
45.39000 59971.000
45.40500 60094.000
45.42000 59747.000
45.43500 59615.000
45.45000 59786.000
45.46500 59992.000
45.48000 59454.000
45.49500 59667.000
45.51000 59371.000
45.52500 59609.000
45.54000 59757.000
45.55500 59556.000
45.57000 59446.000
45.58500 59589.000
45.60000 59453.000
45.61500 59324.000
45.63000 59439.000
45.64500 59776.000
45.66000 59621.000
45.67500 59592.000
45.69000 59814.000
45.70500 59478.000
45.72000 59004.000
45.73500 59260.000
45.75000 59520.000
45.76500 59192.000
45.78000 59447.000
45.79500 59142.000
45.81000 59234.000
45.82500 59003.000
45.84000 59138.000
45.85500 58988.000
45.87000 59179.000
45.88500 59310.000
45.90000 59379.000
45.91500 59162.000
45.93000 59253.000
45.94500 59151.000
45.96000 59052.000
45.97500 58781.000
45.99000 59101.000
46.00500 59322.000
46.02000 59078.000
46.03500 58834.000
46.05000 59055.000
46.06500 59085.000
46.08000 59123.000
46.09500 59352.000
46.11000 59514.000
46.12500 59435.000
46.14000 58950.000
46.15500 58726.000
46.17000 59045.000
46.18500 58918.000
46.20000 58950.000
46.21500 59068.000
46.23000 59090.000
46.24500 58997.000
46.26000 58881.000
46.27500 59272.000
46.29000 58560.000
46.30500 58739.000
46.32000 58657.000
46.33500 59137.000
46.35000 58934.000
46.36500 58746.000
46.38000 58764.000
46.39500 58926.000
46.41000 58558.000
46.42500 58991.000
46.44000 59068.000
46.45500 58889.000
46.47000 58936.000
46.48500 58764.000
46.50000 58738.000
46.51500 58916.000
46.53000 58892.000
46.54500 58831.000
46.56000 58566.000
46.57500 58563.000
46.59000 58716.000
46.60500 58899.000
46.62000 58581.000
46.63500 58397.000
46.65000 58997.000
46.66500 58778.000
46.68000 58649.000
46.69500 58752.000
46.71000 58934.000
46.72500 58724.000
46.74000 58858.000
46.75500 58635.000
46.77000 58700.000
46.78500 59034.000
46.80000 58746.000
46.81500 58841.000
46.83000 58738.000
46.84500 59196.000
46.86000 59033.000
46.87500 58881.000
46.89000 58641.000
46.90500 58620.000
46.92000 58800.000
46.93500 59114.000
46.95000 58951.000
46.96500 58770.000
46.98000 58803.000
46.99500 59100.000
47.01000 58762.000
47.02500 58825.000
47.04000 58732.000
47.05500 58484.000
47.07000 59009.000
47.08500 58593.000
47.10000 58777.000
47.11500 58853.000
47.13000 58806.000
47.14500 58698.000
47.16000 58828.000
47.17500 58932.000
47.19000 58759.000
47.20500 58508.000
47.22000 58574.000
47.23500 58977.000
47.25000 59200.000
47.26500 58606.000
47.28000 58657.000
47.29500 58846.000
47.31000 58795.000
47.32500 58745.000
47.34000 58604.000
47.35500 58460.000
47.37000 58441.000
47.38500 58640.000
47.40000 58493.000
47.41500 58828.000
47.43000 58560.000
47.44500 58829.000
47.46000 58627.000
47.47500 58525.000
47.49000 58457.000
47.50500 58743.000
47.52000 58568.000
47.53500 58683.000
47.55000 58392.000
47.56500 58659.000
47.58000 58348.000
47.59500 58519.000
47.61000 58255.000
47.62500 58783.000
47.64000 58909.000
47.65500 58796.000
47.67000 58235.000
47.68500 58389.000
47.70000 58450.000
47.71500 58451.000
47.73000 58508.000
47.74500 58775.000
47.76000 58718.000
47.77500 58584.000
47.79000 58518.000
47.80500 58413.000
47.82000 58499.000
47.83500 58964.000
47.85000 58715.000
47.86500 58403.000
47.88000 58577.000
47.89500 58898.000
47.91000 58743.000
47.92500 59152.000
47.94000 58697.000
47.95500 58648.000
47.97000 58825.000
47.98500 58347.000
48.00000 58355.000
48.01500 58572.000
48.03000 58481.000
48.04500 58372.000
48.06000 58386.000
48.07500 58674.000
48.09000 58590.000
48.10500 58748.000
48.12000 58546.000
48.13500 58576.000
48.15000 58345.000
48.16500 58486.000
48.18000 58914.000
48.19500 58823.000
48.21000 58645.000
48.22500 58685.000
48.24000 58554.000
48.25500 58665.000
48.27000 58546.000
48.28500 58464.000
48.30000 58630.000
48.31500 58778.000
48.33000 58500.000
48.34500 58406.000
48.36000 58588.000
48.37500 58543.000
48.39000 58652.000
48.40500 58483.000
48.42000 58468.000
48.43500 58518.000
48.45000 58608.000
48.46500 58792.000
48.48000 58696.000
48.49500 58552.000
48.51000 58171.000
48.52500 58282.000
48.54000 58460.000
48.55500 58508.000
48.57000 58567.000
48.58500 58449.000
48.60000 58597.000
48.61500 58329.000
48.63000 58229.000
48.64500 58595.000
48.66000 58647.000
48.67500 58273.000
48.69000 58690.000
48.70500 58808.000
48.72000 58562.000
48.73500 58985.000
48.75000 58851.000
48.76500 58599.000
48.78000 58775.000
48.79500 58429.000
48.81000 58645.000
48.82500 59041.000
48.84000 58394.000
48.85500 58674.000
48.87000 58487.000
48.88500 58556.000
48.90000 58513.000
48.91500 58365.000
48.93000 58813.000
48.94500 58871.000
48.96000 58985.000
48.97500 58440.000
48.99000 58551.000
49.00500 58786.000
49.02000 58300.000
49.03500 58629.000
49.05000 58641.000
49.06500 58594.000
49.08000 58823.000
49.09500 58596.000
49.11000 58778.000
49.12500 59057.000
49.14000 58794.000
49.15500 58384.000
49.17000 58717.000
49.18500 58814.000
49.20000 58408.000
49.21500 58569.000
49.23000 59186.000
49.24500 58850.000
49.26000 58829.000
49.27500 58640.000
49.29000 58466.000
49.30500 58328.000
49.32000 58662.000
49.33500 58527.000
49.35000 58299.000
49.36500 58327.000
49.38000 58582.000
49.39500 58769.000
49.41000 58877.000
49.42500 58650.000
49.44000 58447.000
49.45500 58699.000
49.47000 58753.000
49.48500 58812.000
49.50000 58844.000
49.51500 58708.000
49.53000 58695.000
49.54500 58974.000
49.56000 58664.000
49.57500 58638.000
49.59000 58823.000
49.60500 58809.000
49.62000 58928.000
49.63500 59008.000
49.65000 58769.000
49.66500 58667.000
49.68000 58616.000
49.69500 58531.000
49.71000 58771.000
49.72500 58824.000
49.74000 58958.000
49.75500 59048.000
49.77000 58797.000
49.78500 58628.000
49.80000 58867.000
49.81500 59103.000
49.83000 59027.000
49.84500 58812.000
49.86000 58853.000
49.87500 59257.000
49.89000 59038.000
49.90500 58596.000
49.92000 59348.000
49.93500 59343.000
49.95000 58751.000
49.96500 58855.000
49.98000 58812.000
49.99500 58911.000
50.01000 58962.000
50.02500 59043.000
50.04000 58840.000
50.05500 58883.000
50.07000 58817.000
50.08500 59331.000
50.10000 58878.000
50.11500 58797.000
50.13000 58825.000
50.14500 58986.000
50.16000 59056.000
50.17500 58953.000
50.19000 58931.000
50.20500 58996.000
50.22000 59401.000
50.23500 59271.000
50.25000 59214.000
50.26500 59080.000
50.28000 58994.000
50.29500 59271.000
50.31000 58990.000
50.32500 58722.000
50.34000 59072.000
50.35500 59117.000
50.37000 59138.000
50.38500 59168.000
50.40000 58820.000
50.41500 58914.000
50.43000 59164.000
50.44500 59291.000
50.46000 59201.000
50.47500 59513.000
50.49000 59700.000
50.50500 59322.000
50.52000 59118.000
50.53500 59304.000
50.55000 58969.000
50.56500 59334.000
50.58000 59151.000
50.59500 59263.000
50.61000 59593.000
50.62500 59879.000
50.64000 59836.000
50.65500 59609.000
50.67000 59215.000
50.68500 59531.000
50.70000 59628.000
50.71500 59426.000
50.73000 59334.000
50.74500 59473.000
50.76000 59398.000
50.77500 59511.000
50.79000 59783.000
50.80500 60055.000
50.82000 59443.000
50.83500 59761.000
50.85000 59385.000
50.86500 59958.000
50.88000 60274.000
50.89500 59905.000
50.91000 59734.000
50.92500 59888.000
50.94000 59921.000
50.95500 60058.000
50.97000 59768.000
50.98500 59943.000
51.00000 59861.000
51.01500 59839.000
51.03000 60026.000
51.04500 60102.000
51.06000 60300.000
51.07500 60371.000
51.09000 60253.000
51.10500 60209.000
51.12000 60234.000
51.13500 60205.000
51.15000 60562.000
51.16500 60343.000
51.18000 60168.000
51.19500 59894.000
51.21000 59972.000
51.22500 60328.000
51.24000 60378.000
51.25500 60243.000
51.27000 60571.000
51.28500 60485.000
51.30000 60699.000
51.31500 60846.000
51.33000 60514.000
51.34500 60897.000
51.36000 60955.000
51.37500 61272.000
51.39000 61416.000
51.40500 61243.000
51.42000 61693.000
51.43500 61950.000
51.45000 61697.000
51.46500 61850.000
51.48000 62518.000
51.49500 62216.000
51.51000 62684.000
51.52500 62308.000
51.54000 61983.000
51.55500 61774.000
51.57000 61763.000
51.58500 61558.000
51.60000 61055.000
51.61500 60873.000
51.63000 61132.000
51.64500 60650.000
51.66000 60763.000
51.67500 60488.000
51.69000 60131.000
51.70500 60092.000
51.72000 60010.000
51.73500 60255.000
51.75000 59899.000
51.76500 59979.000
51.78000 60191.000
51.79500 60250.000
51.81000 59843.000
51.82500 59995.000
51.84000 59938.000
51.85500 59267.000
51.87000 59566.000
51.88500 59868.000
51.90000 59768.000
51.91500 59685.000
51.93000 59547.000
51.94500 59492.000
51.96000 59654.000
51.97500 59898.000
51.99000 59451.000
52.00500 59313.000
52.02000 59428.000
52.03500 59336.000
52.05000 59587.000
52.06500 59274.000
52.08000 59359.000
52.09500 59100.000
52.11000 59163.000
52.12500 59122.000
52.14000 59178.000
52.15500 59241.000
52.17000 59042.000
52.18500 58959.000
52.20000 59133.000
52.21500 59190.000
52.23000 59149.000
52.24500 59094.000
52.26000 59133.000
52.27500 59083.000
52.29000 59113.000
52.30500 58982.000
52.32000 59340.000
52.33500 59321.000
52.35000 59128.000
52.36500 58501.000
52.38000 58959.000
52.39500 58644.000
52.41000 58874.000
52.42500 58719.000
52.44000 58811.000
52.45500 58871.000
52.47000 59052.000
52.48500 58981.000
52.50000 58839.000
52.51500 58663.000
52.53000 58883.000
52.54500 58587.000
52.56000 58987.000
52.57500 58467.000
52.59000 58641.000
52.60500 59032.000
52.62000 58734.000
52.63500 58925.000
52.65000 58825.000
52.66500 58570.000
52.68000 58556.000
52.69500 58706.000
52.71000 58394.000
52.72500 58372.000
52.74000 58471.000
52.75500 58736.000
52.77000 58660.000
52.78500 58850.000
52.80000 58440.000
52.81500 58626.000
52.83000 58710.000
52.84500 59079.000
52.86000 58652.000
52.87500 58456.000
52.89000 58506.000
52.90500 58292.000
52.92000 58532.000
52.93500 58413.000
52.95000 58559.000
52.96500 58651.000
52.98000 58185.000
52.99500 58308.000
53.01000 58270.000
53.02500 58601.000
53.04000 58824.000
53.05500 58673.000
53.07000 58655.000
53.08500 58627.000
53.10000 58748.000
53.11500 58295.000
53.13000 58303.000
53.14500 58401.000
53.16000 58872.000
53.17500 58659.000
53.19000 58301.000
53.20500 58443.000
53.22000 58525.000
53.23500 58699.000
53.25000 58458.000
53.26500 58355.000
53.28000 58583.000
53.29500 58669.000
53.31000 58606.000
53.32500 58547.000
53.34000 58394.000
53.35500 58439.000
53.37000 58363.000
53.38500 58535.000
53.40000 58173.000
53.41500 58113.000
53.43000 58196.000
53.44500 58550.000
53.46000 58246.000
53.47500 58327.000
53.49000 58354.000
53.50500 58374.000
53.52000 58409.000
53.53500 58365.000
53.55000 58449.000
53.56500 58565.000
53.58000 58422.000
53.59500 58286.000
53.61000 58283.000
53.62500 58513.000
53.64000 58205.000
53.65500 58507.000
53.67000 58635.000
53.68500 58637.000
53.70000 59031.000
53.71500 58445.000
53.73000 58301.000
53.74500 58495.000
53.76000 58704.000
53.77500 58578.000
53.79000 58435.000
53.80500 58309.000
53.82000 58605.000
53.83500 58742.000
53.85000 58187.000
53.86500 58443.000
53.88000 58741.000
53.89500 58617.000
53.91000 58317.000
53.92500 58207.000
53.94000 58652.000
53.95500 58470.000
53.97000 58515.000
53.98500 58841.000
54.00000 58829.000
54.01500 58516.000
54.03000 58499.000
54.04500 58596.000
54.06000 58463.000
54.07500 58428.000
54.09000 58166.000
54.10500 58468.000
54.12000 58491.000
54.13500 58438.000
54.15000 58025.000
54.16500 58591.000
54.18000 58712.000
54.19500 58491.000
54.21000 58514.000
54.22500 58437.000
54.24000 58229.000
54.25500 58716.000
54.27000 58667.000
54.28500 58443.000
54.30000 57984.000
54.31500 58621.000
54.33000 58167.000
54.34500 58371.000
54.36000 58641.000
54.37500 58633.000
54.39000 58863.000
54.40500 58613.000
54.42000 58212.000
54.43500 58420.000
54.45000 58571.000
54.46500 58718.000
54.48000 58484.000
54.49500 58685.000
54.51000 58433.000
54.52500 58678.000
54.54000 58384.000
54.55500 58618.000
54.57000 58645.000
54.58500 58539.000
54.60000 58450.000
54.61500 58598.000
54.63000 58369.000
54.64500 58398.000
54.66000 58690.000
54.67500 58670.000
54.69000 58235.000
54.70500 58831.000
54.72000 58601.000
54.73500 58522.000
54.75000 58441.000
54.76500 58461.000
54.78000 58430.000
54.79500 58759.000
54.81000 58404.000
54.82500 58305.000
54.84000 58347.000
54.85500 58908.000
54.87000 58599.000
54.88500 58644.000
54.90000 59070.000
54.91500 58483.000
54.93000 58040.000
54.94500 58748.000
54.96000 58618.000
54.97500 58599.000
54.99000 58577.000
55.00500 58555.000
55.02000 58801.000
55.03500 58292.000
55.05000 58435.000
55.06500 58865.000
55.08000 58287.000
55.09500 58317.000
55.11000 58498.000
55.12500 58451.000
55.14000 58573.000
55.15500 58586.000
55.17000 58511.000
55.18500 58256.000
55.20000 58324.000
55.21500 58460.000
55.23000 58590.000
55.24500 58337.000
55.26000 58432.000
55.27500 58224.000
55.29000 58286.000
55.30500 58280.000
55.32000 58534.000
55.33500 58489.000
55.35000 58532.000
55.36500 58526.000
55.38000 58578.000
55.39500 59094.000
55.41000 58839.000
55.42500 58474.000
55.44000 58590.000
55.45500 58709.000
55.47000 58528.000
55.48500 58235.000
55.50000 58489.000
55.51500 58552.000
55.53000 58514.000
55.54500 58683.000
55.56000 58632.000
55.57500 58452.000
55.59000 58704.000
55.60500 58501.000
55.62000 58915.000
55.63500 58674.000
55.65000 58697.000
55.66500 58388.000
55.68000 58310.000
55.69500 58469.000
55.71000 58277.000
55.72500 58514.000
55.74000 58486.000
55.75500 58721.000
55.77000 58455.000
55.78500 58236.000
55.80000 59042.000
55.81500 58698.000
55.83000 58544.000
55.84500 58562.000
55.86000 58449.000
55.87500 58755.000
55.89000 58814.000
55.90500 58400.000
55.92000 58795.000
55.93500 58884.000
55.95000 58875.000
55.96500 58597.000
55.98000 58339.000
55.99500 58358.000
56.01000 58479.000
56.02500 58733.000
56.04000 58834.000
56.05500 58637.000
56.07000 58818.000
56.08500 58473.000
56.10000 58803.000
56.11500 58805.000
56.13000 58422.000
56.14500 58140.000
56.16000 58932.000
56.17500 58856.000
56.19000 58622.000
56.20500 58930.000
56.22000 58604.000
56.23500 58426.000
56.25000 58666.000
56.26500 58516.000
56.28000 58518.000
56.29500 58521.000
56.31000 58651.000
56.32500 58813.000
56.34000 58758.000
56.35500 58553.000
56.37000 58477.000
56.38500 58762.000
56.40000 58832.000
56.41500 58545.000
56.43000 58473.000
56.44500 58562.000
56.46000 58478.000
56.47500 58795.000
56.49000 58978.000
56.50500 58710.000
56.52000 59012.000
56.53500 59016.000
56.55000 58590.000
56.56500 58892.000
56.58000 58687.000
56.59500 58602.000
56.61000 58536.000
56.62500 58862.000
56.64000 58374.000
56.65500 58617.000
56.67000 58354.000
56.68500 58946.000
56.70000 58781.000
56.71500 58654.000
56.73000 58654.000
56.74500 58537.000
56.76000 58541.000
56.77500 58274.000
56.79000 58734.000
56.80500 58588.000
56.82000 58612.000
56.83500 58706.000
56.85000 58374.000
56.86500 58700.000
56.88000 58828.000
56.89500 58788.000
56.91000 58808.000
56.92500 58763.000
56.94000 58546.000
56.95500 58481.000
56.97000 58923.000
56.98500 58736.000
57.00000 58814.000
57.01500 58800.000
57.03000 58558.000
57.04500 58852.000
57.06000 59052.000
57.07500 58837.000
57.09000 58725.000
57.10500 58567.000
57.12000 58447.000
57.13500 58454.000
57.15000 58797.000
57.16500 58614.000
57.18000 58620.000
57.19500 58993.000
57.21000 58826.000
57.22500 58806.000
57.24000 58432.000
57.25500 58629.000
57.27000 58412.000
57.28500 58782.000
57.30000 58843.000
57.31500 58960.000
57.33000 58715.000
57.34500 58418.000
57.36000 58607.000
57.37500 58764.000
57.39000 59024.000
57.40500 58766.000
57.42000 58820.000
57.43500 58666.000
57.45000 58818.000
57.46500 58865.000
57.48000 58661.000
57.49500 58636.000
57.51000 58842.000
57.52500 58706.000
57.54000 58569.000
57.55500 58708.000
57.57000 58698.000
57.58500 58830.000
57.60000 58769.000
57.61500 58614.000
57.63000 58386.000
57.64500 58607.000
57.66000 58923.000
57.67500 58637.000
57.69000 58796.000
57.70500 58643.000
57.72000 58930.000
57.73500 58853.000
57.75000 58569.000
57.76500 58362.000
57.78000 58867.000
57.79500 58903.000
57.81000 58814.000
57.82500 59119.000
57.84000 58949.000
57.85500 58662.000
57.87000 59058.000
57.88500 58970.000
57.90000 58969.000
57.91500 59415.000
57.93000 59143.000
57.94500 58901.000
57.96000 58716.000
57.97500 58874.000
57.99000 58825.000
58.00500 58928.000
58.02000 58901.000
58.03500 58736.000
58.05000 59092.000
58.06500 58884.000
58.08000 58824.000
58.09500 59001.000
58.11000 59116.000
58.12500 59214.000
58.14000 59037.000
58.15500 59257.000
58.17000 58987.000
58.18500 58745.000
58.20000 58634.000
58.21500 58881.000
58.23000 58988.000
58.24500 58946.000
58.26000 58972.000
58.27500 59031.000
58.29000 58835.000
58.30500 59119.000
58.32000 59121.000
58.33500 58896.000
58.35000 58993.000
58.36500 58618.000
58.38000 58616.000
58.39500 58867.000
58.41000 59459.000
58.42500 58995.000
58.44000 58587.000
58.45500 58493.000
58.47000 59194.000
58.48500 58925.000
58.50000 58790.000
58.51500 59125.000
58.53000 58875.000
58.54500 59020.000
58.56000 58978.000
58.57500 59016.000
58.59000 59071.000
58.60500 59361.000
58.62000 59077.000
58.63500 59226.000
58.65000 58716.000
58.66500 58887.000
58.68000 58849.000
58.69500 58860.000
58.71000 58796.000
58.72500 58908.000
58.74000 59108.000
58.75500 59013.000
58.77000 58885.000
58.78500 58868.000
58.80000 59116.000
58.81500 58972.000
58.83000 58778.000
58.84500 58881.000
58.86000 59139.000
58.87500 58888.000
58.89000 59009.000
58.90500 59413.000
58.92000 59274.000
58.93500 59458.000
58.95000 59036.000
58.96500 58756.000
58.98000 58788.000
58.99500 59042.000
59.01000 58845.000
59.02500 59137.000
59.04000 59525.000
59.05500 59115.000
59.07000 58950.000
59.08500 59023.000
59.10000 58964.000
59.11500 58756.000
59.13000 58922.000
59.14500 58763.000
59.16000 58908.000
59.17500 59310.000
59.19000 58893.000
59.20500 58863.000
59.22000 59286.000
59.23500 59235.000
59.25000 58989.000
59.26500 59082.000
59.28000 59232.000
59.29500 59317.000
59.31000 59426.000
59.32500 58794.000
59.34000 59128.000
59.35500 59274.000
59.37000 59116.000
59.38500 59127.000
59.40000 59154.000
59.41500 59088.000
59.43000 59216.000
59.44500 58837.000
59.46000 59097.000
59.47500 59103.000
59.49000 59158.000
59.50500 59231.000
59.52000 59094.000
59.53500 59092.000
59.55000 59106.000
59.56500 59191.000
59.58000 59340.000
59.59500 59260.000
59.61000 58945.000
59.62500 59446.000
59.64000 59156.000
59.65500 59165.000
59.67000 59083.000
59.68500 59422.000
59.70000 59109.000
59.71500 58881.000
59.73000 59385.000
59.74500 59167.000
59.76000 59046.000
59.77500 59203.000
59.79000 58995.000
59.80500 59434.000
59.82000 59078.000
59.83500 59138.000
59.85000 59040.000
59.86500 59028.000
59.88000 59530.000
59.89500 59476.000
59.91000 59262.000
59.92500 59391.000
59.94000 59047.000
59.95500 59081.000
59.97000 59041.000
59.98500 59104.000
60.00000 59302.000
60.01500 59641.000
60.03000 59265.000
60.04500 59369.000
60.06000 59216.000
60.07500 59339.000
60.09000 59197.000
60.10500 59112.000
60.12000 59101.000
60.13500 59209.000
60.15000 59144.000
60.16500 59321.000
60.18000 59275.000
60.19500 59276.000
60.21000 59649.000
60.22500 59037.000
60.24000 58972.000
60.25500 58886.000
60.27000 59566.000
60.28500 59351.000
60.30000 59248.000
60.31500 59243.000
60.33000 59129.000
60.34500 59453.000
60.36000 59701.000
60.37500 59743.000
60.39000 59384.000
60.40500 59053.000
60.42000 59304.000
60.43500 59360.000
60.45000 59371.000
60.46500 59427.000
60.48000 59256.000
60.49500 59631.000
60.51000 59402.000
60.52500 59158.000
60.54000 59169.000
60.55500 59580.000
60.57000 59159.000
60.58500 59223.000
60.60000 59583.000
60.61500 59408.000
60.63000 59496.000
60.64500 59210.000
60.66000 59618.000
60.67500 59517.000
60.69000 59439.000
60.70500 59237.000
60.72000 59493.000
60.73500 59365.000
60.75000 59314.000
60.76500 59417.000
60.78000 59168.000
60.79500 59636.000
60.81000 59409.000
60.82500 59689.000
60.84000 59362.000
60.85500 59347.000
60.87000 59435.000
60.88500 59217.000
60.90000 59705.000
60.91500 59215.000
60.93000 59288.000
60.94500 59269.000
60.96000 59577.000
60.97500 59872.000
60.99000 60027.000
61.00500 59882.000
61.02000 59703.000
61.03500 59502.000
61.05000 60084.000
61.06500 59353.000
61.08000 59725.000
61.09500 59751.000
61.11000 59744.000
61.12500 59720.000
61.14000 59461.000
61.15500 59470.000
61.17000 59666.000
61.18500 59350.000
61.20000 59803.000
61.21500 59644.000
61.23000 59695.000
61.24500 59952.000
61.26000 59454.000
61.27500 59746.000
61.29000 60104.000
61.30500 59915.000
61.32000 59955.000
61.33500 59691.000
61.35000 59755.000
61.36500 59899.000
61.38000 60363.000
61.39500 59774.000
61.41000 60039.000
61.42500 59987.000
61.44000 60034.000
61.45500 60142.000
61.47000 59898.000
61.48500 60013.000
61.50000 60319.000
61.51500 60044.000
61.53000 59950.000
61.54500 60012.000
61.56000 60246.000
61.57500 59587.000
61.59000 59928.000
61.60500 59831.000
61.62000 59563.000
61.63500 59988.000
61.65000 59790.000
61.66500 59740.000
61.68000 60026.000
61.69500 60031.000
61.71000 59868.000
61.72500 59897.000
61.74000 59858.000
61.75500 59954.000
61.77000 59902.000
61.78500 59941.000
61.80000 59844.000
61.81500 59961.000
61.83000 59976.000
61.84500 59534.000
61.86000 59968.000
61.87500 60066.000
61.89000 59592.000
61.90500 60086.000
61.92000 60297.000
61.93500 59736.000
61.95000 59725.000
61.96500 59834.000
61.98000 59681.000
61.99500 59653.000
62.01000 59699.000
62.02500 59681.000
62.04000 59796.000
62.05500 60055.000
62.07000 59895.000
62.08500 59873.000
62.10000 59889.000
62.11500 59742.000
62.13000 59735.000
62.14500 59913.000
62.16000 59724.000
62.17500 59534.000
62.19000 59705.000
62.20500 59623.000
62.22000 60053.000
62.23500 59987.000
62.25000 60021.000
62.26500 59831.000
62.28000 59726.000
62.29500 59616.000
62.31000 59792.000
62.32500 59649.000
62.34000 59576.000
62.35500 59909.000
62.37000 59837.000
62.38500 59665.000
62.40000 59653.000
62.41500 59864.000
62.43000 59628.000
62.44500 59657.000
62.46000 59743.000
62.47500 59946.000
62.49000 59816.000
62.50500 59201.000
62.52000 59565.000
62.53500 59847.000
62.55000 59795.000
62.56500 59888.000
62.58000 59755.000
62.59500 59735.000
62.61000 59616.000
62.62500 59799.000
62.64000 59696.000
62.65500 59519.000
62.67000 60105.000
62.68500 60094.000
62.70000 59579.000
62.71500 59615.000
62.73000 59605.000
62.74500 59733.000
62.76000 59531.000
62.77500 59772.000
62.79000 59550.000
62.80500 59682.000
62.82000 59709.000
62.83500 59686.000
62.85000 59716.000
62.86500 59779.000
62.88000 59763.000
62.89500 59776.000
62.91000 59055.000
62.92500 59560.000
62.94000 59590.000
62.95500 59945.000
62.97000 60108.000
62.98500 59787.000
63.00000 59570.000
63.01500 59844.000
63.03000 59681.000
63.04500 59612.000
63.06000 59913.000
63.07500 59865.000
63.09000 59922.000
63.10500 59707.000
63.12000 59192.000
63.13500 59596.000
63.15000 59365.000
63.16500 59396.000
63.18000 59565.000
63.19500 59697.000
63.21000 59912.000
63.22500 59733.000
63.24000 59882.000
63.25500 59865.000
63.27000 59876.000
63.28500 59735.000
63.30000 59860.000
63.31500 59957.000
63.33000 59813.000
63.34500 59813.000
63.36000 59562.000
63.37500 59747.000
63.39000 59523.000
63.40500 59905.000
63.42000 60119.000
63.43500 59941.000
63.45000 59799.000
63.46500 59815.000
63.48000 59767.000
63.49500 60086.000
63.51000 59755.000
63.52500 59899.000
63.54000 59671.000
63.55500 59535.000
63.57000 59699.000
63.58500 59662.000
63.60000 60027.000
63.61500 59947.000
63.63000 59681.000
63.64500 59421.000
63.66000 59647.000
63.67500 59690.000
63.69000 59683.000
63.70500 59934.000
63.72000 60043.000
63.73500 59652.000
63.75000 60144.000
63.76500 59737.000
63.78000 59740.000
63.79500 59990.000
63.81000 59670.000
63.82500 59316.000
63.84000 59655.000
63.85500 59443.000
63.87000 59707.000
63.88500 59803.000
63.90000 59749.000
63.91500 59663.000
63.93000 59800.000
63.94500 59952.000
63.96000 59591.000
63.97500 59563.000
63.99000 59785.000
64.00500 59448.000
64.02000 59722.000
64.03500 59548.000
64.05000 59780.000
64.06500 59464.000
64.08000 59708.000
64.09500 59780.000
64.11000 59746.000
64.12500 59931.000
64.14000 59718.000
64.15500 59710.000
64.17000 59553.000
64.18500 59565.000
64.20000 59847.000
64.21500 60212.000
64.23000 59595.000
64.24500 60194.000
64.26000 59766.000
64.27500 59643.000
64.29000 59744.000
64.30500 60280.000
64.32000 60052.000
64.33500 59987.000
64.35000 60134.000
64.36500 59878.000
64.38000 60004.000
64.39500 59913.000
64.41000 59674.000
64.42500 59945.000
64.44000 60319.000
64.45500 60006.000
64.47000 60011.000
64.48500 59687.000
64.50000 59677.000
64.51500 59534.000
64.53000 60018.000
64.54500 59909.000
64.56000 59796.000
64.57500 59732.000
64.59000 59909.000
64.60500 59819.000
64.62000 59815.000
64.63500 59766.000
64.65000 59736.000
64.66500 59957.000
64.68000 60212.000
64.69500 60005.000
64.71000 59657.000
64.72500 59742.000
64.74000 59906.000
64.75500 59749.000
64.77000 59834.000
64.78500 59715.000
64.80000 59992.000
64.81500 59969.000
64.83000 60140.000
64.84500 60175.000
64.86000 60070.000
64.87500 60204.000
64.89000 59900.000
64.90500 59733.000
64.92000 59360.000
64.93500 59703.000
64.95000 59518.000
64.96500 60063.000
64.98000 60184.000
64.99500 59981.000
65.01000 60085.000
65.02500 60072.000
65.04000 59761.000
65.05500 59992.000
65.07000 59504.000
65.08500 59632.000
65.10000 59837.000
65.11500 60252.000
65.13000 59774.000
65.14500 60066.000
65.16000 59965.000
65.17500 59738.000
65.19000 60189.000
65.20500 60191.000
65.22000 59872.000
65.23500 59965.000
65.25000 59778.000
65.26500 59746.000
65.28000 59994.000
65.29500 60264.000
65.31000 60188.000
65.32500 60171.000
65.34000 59871.000
65.35500 59637.000
65.37000 59632.000
65.38500 59894.000
65.40000 60085.000
65.41500 60285.000
65.43000 60097.000
65.44500 60173.000
65.46000 60224.000
65.47500 60171.000
65.49000 59710.000
65.50500 59709.000
65.52000 59907.000
65.53500 60370.000
65.55000 60304.000
65.56500 60016.000
65.58000 59911.000
65.59500 59953.000
65.61000 59823.000
65.62500 60189.000
65.64000 60118.000
65.65500 60060.000
65.67000 59998.000
65.68500 60107.000
65.70000 60098.000
65.71500 59994.000
65.73000 60128.000
65.74500 60248.000
65.76000 59924.000
65.77500 60207.000
65.79000 60253.000
65.80500 60310.000
65.82000 59892.000
65.83500 60491.000
65.85000 60232.000
65.86500 60292.000
65.88000 60310.000
65.89500 60075.000
65.91000 60014.000
65.92500 59652.000
65.94000 60011.000
65.95500 59816.000
65.97000 59982.000
65.98500 60074.000
66.00000 60158.000
66.01500 60327.000
66.03000 60056.000
66.04500 59856.000
66.06000 60204.000
66.07500 60241.000
66.09000 59901.000
66.10500 60010.000
66.12000 59733.000
66.13500 59976.000
66.15000 60295.000
66.16500 59718.000
66.18000 60270.000
66.19500 59904.000
66.21000 59854.000
66.22500 60342.000
66.24000 60065.000
66.25500 60091.000
66.27000 60162.000
66.28500 59924.000
66.30000 59767.000
66.31500 60030.000
66.33000 60316.000
66.34500 60039.000
66.36000 60058.000
66.37500 59853.000
66.39000 59835.000
66.40500 59992.000
66.42000 60151.000
66.43500 60007.000
66.45000 60277.000
66.46500 60428.000
66.48000 60284.000
66.49500 60394.000
66.51000 60097.000
66.52500 60342.000
66.54000 60491.000
66.55500 60448.000
66.57000 60588.000
66.58500 60236.000
66.60000 60422.000
66.61500 60033.000
66.63000 60285.000
66.64500 60079.000
66.66000 60306.000
66.67500 59889.000
66.69000 60014.000
66.70500 60278.000
66.72000 59911.000
66.73500 60522.000
66.75000 60222.000
66.76500 60163.000
66.78000 60251.000
66.79500 60000.000
66.81000 60203.000
66.82500 59985.000
66.84000 60300.000
66.85500 59920.000
66.87000 60196.000
66.88500 60454.000
66.90000 60457.000
66.91500 60798.000
66.93000 60131.000
66.94500 60210.000
66.96000 60191.000
66.97500 60244.000
66.99000 60542.000
67.00500 60153.000
67.02000 60199.000
67.03500 60086.000
67.05000 60113.000
67.06500 60097.000
67.08000 59708.000
67.09500 60086.000
67.11000 60144.000
67.12500 60066.000
67.14000 60221.000
67.15500 60135.000
67.17000 60098.000
67.18500 60550.000
67.20000 60288.000
67.21500 60304.000
67.23000 60007.000
67.24500 60345.000
67.26000 60409.000
67.27500 60534.000
67.29000 60262.000
67.30500 60150.000
67.32000 60214.000
67.33500 60267.000
67.35000 60308.000
67.36500 60087.000
67.38000 60270.000
67.39500 60027.000
67.41000 60195.000
67.42500 60079.000
67.44000 60173.000
67.45500 59990.000
67.47000 60147.000
67.48500 60423.000
67.50000 60211.000
67.51500 60218.000
67.53000 60224.000
67.54500 60362.000
67.56000 60171.000
67.57500 60133.000
67.59000 60189.000
67.60500 60400.000
67.62000 60417.000
67.63500 60260.000
67.65000 60333.000
67.66500 60020.000
67.68000 60187.000
67.69500 60477.000
67.71000 60645.000
67.72500 60387.000
67.74000 60661.000
67.75500 60747.000
67.77000 60380.000
67.78500 60171.000
67.80000 60195.000
67.81500 60650.000
67.83000 60514.000
67.84500 60326.000
67.86000 60403.000
67.87500 60005.000
67.89000 60158.000
67.90500 60455.000
67.92000 60538.000
67.93500 60571.000
67.95000 60422.000
67.96500 60150.000
67.98000 60293.000
67.99500 60619.000
68.01000 60520.000
68.02500 60731.000
68.04000 60256.000
68.05500 60222.000
68.07000 60563.000
68.08500 60318.000
68.10000 60516.000
68.11500 60544.000
68.13000 60535.000
68.14500 60306.000
68.16000 60319.000
68.17500 60631.000
68.19000 60401.000
68.20500 60371.000
68.22000 60212.000
68.23500 60354.000
68.25000 60435.000
68.26500 60370.000
68.28000 60282.000
68.29500 60290.000
68.31000 60381.000
68.32500 60353.000
68.34000 60159.000
68.35500 60046.000
68.37000 60041.000
68.38500 60442.000
68.40000 60496.000
68.41500 60571.000
68.43000 60349.000
68.44500 60679.000
68.46000 60420.000
68.47500 60658.000
68.49000 60485.000
68.50500 60532.000
68.52000 60817.000
68.53500 60421.000
68.55000 60540.000
68.56500 60281.000
68.58000 60445.000
68.59500 60527.000
68.61000 59885.000
68.62500 60200.000
68.64000 60326.000
68.65500 60212.000
68.67000 60653.000
68.68500 60441.000
68.70000 60354.000
68.71500 60566.000
68.73000 60580.000
68.74500 60513.000
68.76000 60535.000
68.77500 60259.000
68.79000 60028.000
68.80500 60274.000
68.82000 60548.000
68.83500 60181.000
68.85000 60385.000
68.86500 60410.000
68.88000 60391.000
68.89500 60678.000
68.91000 60240.000
68.92500 60387.000
68.94000 60367.000
68.95500 60363.000
68.97000 60304.000
68.98500 60718.000
69.00000 60243.000
69.01500 60696.000
69.03000 60823.000
69.04500 60452.000
69.06000 60364.000
69.07500 60475.000
69.09000 60334.000
69.10500 60536.000
69.12000 60385.000
69.13500 60369.000
69.15000 60568.000
69.16500 60458.000
69.18000 60723.000
69.19500 60527.000
69.21000 60519.000
69.22500 60129.000
69.24000 60425.000
69.25500 60473.000
69.27000 60357.000
69.28500 60691.000
69.30000 60678.000
69.31500 60571.000
69.33000 60638.000
69.34500 60472.000
69.36000 60104.000
69.37500 60830.000
69.39000 60934.000
69.40500 60736.000
69.42000 60549.000
69.43500 60465.000
69.45000 60452.000
69.46500 60555.000
69.48000 60599.000
69.49500 60818.000
69.51000 60578.000
69.52500 60698.000
69.54000 60608.000
69.55500 60360.000
69.57000 60326.000
69.58500 60668.000
69.60000 60344.000
69.61500 60563.000
69.63000 60879.000
69.64500 60711.000
69.66000 60559.000
69.67500 60534.000
69.69000 60613.000
69.70500 61047.000
69.72000 60440.000
69.73500 60709.000
69.75000 60636.000
69.76500 60656.000
69.78000 60853.000
69.79500 60912.000
69.81000 61049.000
69.82500 60359.000
69.84000 60818.000
69.85500 61099.000
69.87000 60913.000
69.88500 60691.000
69.90000 60625.000
69.91500 60706.000
69.93000 60522.000
69.94500 60430.000
69.96000 60868.000
69.97500 60789.000
69.99000 61004.000
70.00500 60557.000
70.02000 60997.000
70.03500 60794.000
70.05000 60722.000
70.06500 60652.000
70.08000 60961.000
70.09500 60628.000
70.11000 60539.000
70.12500 60318.000
70.14000 60796.000
70.15500 60849.000
70.17000 60569.000
70.18500 60786.000
70.20000 61001.000
70.21500 60834.000
70.23000 60874.000
70.24500 61015.000
70.26000 60752.000
70.27500 60651.000
70.29000 60308.000
70.30500 60616.000
70.32000 61175.000
70.33500 60936.000
70.35000 60826.000
70.36500 61135.000
70.38000 60736.000
70.39500 60349.000
70.41000 60872.000
70.42500 60802.000
70.44000 60677.000
70.45500 61073.000
70.47000 60890.000
70.48500 61057.000
70.50000 60687.000
70.51500 61115.000
70.53000 60925.000
70.54500 60681.000
70.56000 60937.000
70.57500 60790.000
70.59000 60101.000
70.60500 60740.000
70.62000 60745.000
70.63500 60990.000
70.65000 60735.000
70.66500 61121.000
70.68000 60999.000
70.69500 60892.000
70.71000 60897.000
70.72500 60815.000
70.74000 60671.000
70.75500 61220.000
70.77000 60839.000
70.78500 61033.000
70.80000 60609.000
70.81500 60798.000
70.83000 61105.000
70.84500 61040.000
70.86000 60994.000
70.87500 61376.000
70.89000 60810.000
70.90500 60614.000
70.92000 60865.000
70.93500 60383.000
70.95000 60626.000
70.96500 60749.000
70.98000 60830.000
70.99500 61061.000
71.01000 60883.000
71.02500 60659.000
71.04000 60686.000
71.05500 60905.000
71.07000 60710.000
71.08500 60511.000
71.10000 61034.000
71.11500 61298.000
71.13000 60888.000
71.14500 61005.000
71.16000 60780.000
71.17500 60874.000
71.19000 60715.000
71.20500 61077.000
71.22000 61037.000
71.23500 60960.000
71.25000 60647.000
71.26500 60921.000
71.28000 61034.000
71.29500 60897.000
71.31000 61123.000
71.32500 60940.000
71.34000 61087.000
71.35500 61054.000
71.37000 60729.000
71.38500 61190.000
71.40000 60842.000
71.41500 60854.000
71.43000 60744.000
71.44500 60975.000
71.46000 60808.000
71.47500 60959.000
71.49000 60776.000
71.50500 60756.000
71.52000 60960.000
71.53500 60910.000
71.55000 61184.000
71.56500 61008.000
71.58000 60853.000
71.59500 60879.000
71.61000 60901.000
71.62500 60693.000
71.64000 60796.000
71.65500 61112.000
71.67000 60823.000
71.68500 60982.000
71.70000 60961.000
71.71500 61350.000
71.73000 60786.000
71.74500 60669.000
71.76000 60736.000
71.77500 61235.000
71.79000 60921.000
71.80500 60804.000
71.82000 61103.000
71.83500 60930.000
71.85000 60847.000
71.86500 60974.000
71.88000 60861.000
71.89500 61058.000
71.91000 61258.000
71.92500 61305.000
71.94000 61223.000
71.95500 61334.000
71.97000 60876.000
71.98500 61221.000
72.00000 61436.000
72.01500 60923.000
72.03000 60815.000
72.04500 61068.000
72.06000 61314.000
72.07500 61197.000
72.09000 61110.000
72.10500 61080.000
72.12000 61177.000
72.13500 61181.000
72.15000 60986.000
72.16500 60902.000
72.18000 60952.000
72.19500 61108.000
72.21000 60947.000
72.22500 61094.000
72.24000 61020.000
72.25500 60991.000
72.27000 61440.000
72.28500 61247.000
72.30000 61056.000
72.31500 60508.000
72.33000 60850.000
72.34500 61000.000
72.36000 61361.000
72.37500 61210.000
72.39000 61218.000
72.40500 61250.000
72.42000 61309.000
72.43500 61174.000
72.45000 61311.000
72.46500 61401.000
72.48000 61293.000
72.49500 60785.000
72.51000 61323.000
72.52500 61293.000
72.54000 61442.000
72.55500 61119.000
72.57000 60945.000
72.58500 61100.000
72.60000 60958.000
72.61500 61106.000
72.63000 61356.000
72.64500 61273.000
72.66000 61489.000
72.67500 61458.000
72.69000 61325.000
72.70500 61139.000
72.72000 61467.000
72.73500 61316.000
72.75000 61231.000
72.76500 61498.000
72.78000 61159.000
72.79500 61141.000
72.81000 61254.000
72.82500 61398.000
72.84000 61294.000
72.85500 61344.000
72.87000 61203.000
72.88500 61573.000
72.90000 61485.000
72.91500 61423.000
72.93000 61352.000
72.94500 61221.000
72.96000 61021.000
72.97500 61267.000
72.99000 61398.000
73.00500 61326.000
73.02000 61188.000
73.03500 61160.000
73.05000 61500.000
73.06500 61537.000
73.08000 61585.000
73.09500 61547.000
73.11000 61398.000
73.12500 61290.000
73.14000 61408.000
73.15500 61541.000
73.17000 61446.000
73.18500 61822.000
73.20000 61457.000
73.21500 61104.000
73.23000 61599.000
73.24500 61375.000
73.26000 61371.000
73.27500 61333.000
73.29000 61554.000
73.30500 61356.000
73.32000 61347.000
73.33500 61580.000
73.35000 61451.000
73.36500 61559.000
73.38000 61466.000
73.39500 61414.000
73.41000 61703.000
73.42500 61767.000
73.44000 61693.000
73.45500 61456.000
73.47000 61423.000
73.48500 61463.000
73.50000 61368.000
73.51500 61593.000
73.53000 61630.000
73.54500 61683.000
73.56000 61721.000
73.57500 61705.000
73.59000 61707.000
73.60500 61424.000
73.62000 61554.000
73.63500 61558.000
73.65000 61724.000
73.66500 62041.000
73.68000 61712.000
73.69500 61708.000
73.71000 61449.000
73.72500 61360.000
73.74000 61520.000
73.75500 61655.000
73.77000 61520.000
73.78500 61499.000
73.80000 61474.000
73.81500 61506.000
73.83000 61651.000
73.84500 61436.000
73.86000 61569.000
73.87500 61724.000
73.89000 61477.000
73.90500 61632.000
73.92000 61866.000
73.93500 61660.000
73.95000 61591.000
73.96500 61312.000
73.98000 61610.000
73.99500 61916.000
74.01000 61451.000
74.02500 61812.000
74.04000 61974.000
74.05500 61464.000
74.07000 61421.000
74.08500 61667.000
74.10000 62164.000
74.11500 61720.000
74.13000 61641.000
74.14500 61871.000
74.16000 61698.000
74.17500 61605.000
74.19000 61468.000
74.20500 61629.000
74.22000 61808.000
74.23500 61693.000
74.25000 61679.000
74.26500 61813.000
74.28000 61422.000
74.29500 61417.000
74.31000 61308.000
74.32500 61480.000
74.34000 61764.000
74.35500 62092.000
74.37000 62117.000
74.38500 61794.000
74.40000 61760.000
74.41500 61892.000
74.43000 61873.000
74.44500 61762.000
74.46000 61614.000
74.47500 61794.000
74.49000 62004.000
74.50500 61972.000
74.52000 61803.000
74.53500 61506.000
74.55000 61468.000
74.56500 61602.000
74.58000 61635.000
74.59500 61373.000
74.61000 61750.000
74.62500 61556.000
74.64000 61832.000
74.65500 62167.000
74.67000 62069.000
74.68500 61746.000
74.70000 62000.000
74.71500 61735.000
74.73000 61685.000
74.74500 61585.000
74.76000 62067.000
74.77500 62144.000
74.79000 62293.000
74.80500 61811.000
74.82000 61678.000
74.83500 62079.000
74.85000 62094.000
74.86500 62272.000
74.88000 62228.000
74.89500 62004.000
74.91000 61850.000
74.92500 61855.000
74.94000 61882.000
74.95500 62079.000
74.97000 62274.000
74.98500 62283.000
75.00000 62501.000
75.01500 62183.000
75.03000 62257.000
75.04500 62338.000
75.06000 62310.000
75.07500 62209.000
75.09000 62417.000
75.10500 62071.000
75.12000 62080.000
75.13500 62149.000
75.15000 62073.000
75.16500 62386.000
75.18000 62331.000
75.19500 62057.000
75.21000 62143.000
75.22500 62407.000
75.24000 62389.000
75.25500 62337.000
75.27000 62343.000
75.28500 62728.000
75.30000 62752.000
75.31500 62808.000
75.33000 62512.000
75.34500 62181.000
75.36000 62566.000
75.37500 62866.000
75.39000 63125.000
75.40500 62760.000
75.42000 62466.000
75.43500 62964.000
75.45000 62852.000
75.46500 62847.000
75.48000 62859.000
75.49500 63149.000
75.51000 63076.000
75.52500 63151.000
75.54000 63371.000
75.55500 62873.000
75.57000 63405.000
75.58500 63836.000
75.60000 63917.000
75.61500 64136.000
75.63000 64069.000
75.64500 64377.000
75.66000 64293.000
75.67500 64666.000
75.69000 64903.000
75.70500 65058.000
75.72000 65122.000
75.73500 65897.000
75.75000 66099.000
75.76500 66077.000
75.78000 66447.000
75.79500 66806.000
75.81000 66694.000
75.82500 66824.000
75.84000 66545.000
75.85500 66754.000
75.87000 66894.000
75.88500 66365.000
75.90000 66197.000
75.91500 66124.000
75.93000 66405.000
75.94500 65598.000
75.96000 65613.000
75.97500 65100.000
75.99000 64752.000
76.00500 64541.000
76.02000 64432.000
76.03500 64455.000
76.05000 63979.000
76.06500 63931.000
76.08000 63957.000
76.09500 63592.000
76.11000 63394.000
76.12500 63128.000
76.14000 63458.000
76.15500 63389.000
76.17000 63459.000
76.18500 63112.000
76.20000 63112.000
76.21500 63251.000
76.23000 63070.000
76.24500 62979.000
76.26000 62924.000
76.27500 62865.000
76.29000 62940.000
76.30500 62836.000
76.32000 62820.000
76.33500 62938.000
76.35000 62795.000
76.36500 62526.000
76.38000 62603.000
76.39500 62899.000
76.41000 62654.000
76.42500 62610.000
76.44000 62622.000
76.45500 62457.000
76.47000 62556.000
76.48500 62763.000
76.50000 62613.000
76.51500 62309.000
76.53000 62979.000
76.54500 62568.000
76.56000 62272.000
76.57500 62605.000
76.59000 62460.000
76.60500 62638.000
76.62000 62684.000
76.63500 62472.000
76.65000 62843.000
76.66500 62727.000
76.68000 62379.000
76.69500 62308.000
76.71000 62535.000
76.72500 62623.000
76.74000 62471.000
76.75500 62402.000
76.77000 62857.000
76.78500 62655.000
76.80000 62278.000
76.81500 62419.000
76.83000 62421.000
76.84500 62575.000
76.86000 62653.000
76.87500 62305.000
76.89000 62230.000
76.90500 62595.000
76.92000 62057.000
76.93500 62180.000
76.95000 62315.000
76.96500 62187.000
76.98000 62291.000
76.99500 62470.000
77.01000 62830.000
77.02500 62758.000
77.04000 62107.000
77.05500 62566.000
77.07000 62531.000
77.08500 62410.000
77.10000 62636.000
77.11500 62944.000
77.13000 62335.000
77.14500 62199.000
77.16000 62257.000
77.17500 62316.000
77.19000 62240.000
77.20500 62429.000
77.22000 62326.000
77.23500 62540.000
77.25000 62844.000
77.26500 62390.000
77.28000 62140.000
77.29500 62321.000
77.31000 62161.000
77.32500 62122.000
77.34000 62697.000
77.35500 62594.000
77.37000 62433.000
77.38500 62593.000
77.40000 62553.000
77.41500 62097.000
77.43000 62408.000
77.44500 62527.000
77.46000 62305.000
77.47500 62319.000
77.49000 62437.000
77.50500 62773.000
77.52000 62502.000
77.53500 62432.000
77.55000 62434.000
77.56500 62456.000
77.58000 62575.000
77.59500 62005.000
77.61000 62157.000
77.62500 62659.000
77.64000 62742.000
77.65500 62315.000
77.67000 62220.000
77.68500 61918.000
77.70000 62269.000
77.71500 62480.000
77.73000 62325.000
77.74500 62268.000
77.76000 62463.000
77.77500 62297.000
77.79000 62402.000
77.80500 62472.000
77.82000 62467.000
77.83500 62093.000
77.85000 62333.000
77.86500 62574.000
77.88000 62667.000
77.89500 62398.000
77.91000 62438.000
77.92500 62385.000
77.94000 62331.000
77.95500 62366.000
77.97000 62402.000
77.98500 62405.000
78.00000 62360.000
78.01500 62283.000
78.03000 62208.000
78.04500 62468.000
78.06000 62991.000
78.07500 62571.000
78.09000 61941.000
78.10500 62071.000
78.12000 62246.000
78.13500 62230.000
78.15000 62482.000
78.16500 61828.000
78.18000 62599.000
78.19500 62846.000
78.21000 62314.000
78.22500 62538.000
78.24000 62689.000
78.25500 62364.000
78.27000 62438.000
78.28500 62544.000
78.30000 62877.000
78.31500 62925.000
78.33000 62304.000
78.34500 62255.000
78.36000 62173.000
78.37500 62509.000
78.39000 62883.000
78.40500 62496.000
78.42000 62352.000
78.43500 62553.000
78.45000 62273.000
78.46500 62702.000
78.48000 62382.000
78.49500 62236.000
78.51000 62353.000
78.52500 62019.000
78.54000 62526.000
78.55500 62002.000
78.57000 62783.000
78.58500 62374.000
78.60000 62336.000
78.61500 62576.000
78.63000 62686.000
78.64500 62368.000
78.66000 62472.000
78.67500 63172.000
78.69000 62591.000
78.70500 62450.000
78.72000 62122.000
78.73500 62093.000
78.75000 62665.000
78.76500 61940.000
78.78000 62204.000
78.79500 62187.000
78.81000 62298.000
78.82500 62502.000
78.84000 62726.000
78.85500 62760.000
78.87000 62766.000
78.88500 62263.000
78.90000 62189.000
78.91500 62703.000
78.93000 62155.000
78.94500 62602.000
78.96000 62581.000
78.97500 62713.000
78.99000 62002.000
79.00500 62506.000
79.02000 62543.000
79.03500 62295.000
79.05000 62187.000
79.06500 62635.000
79.08000 62229.000
79.09500 62558.000
79.11000 63009.000
79.12500 62790.000
79.14000 62370.000
79.15500 62474.000
79.17000 62621.000
79.18500 62631.000
79.20000 62798.000
79.21500 62717.000
79.23000 62436.000
79.24500 62135.000
79.26000 62631.000
79.27500 62627.000
79.29000 62677.000
79.30500 62365.000
79.32000 62431.000
79.33500 62523.000
79.35000 62295.000
79.36500 62358.000
79.38000 62399.000
79.39500 62442.000
79.41000 62548.000
79.42500 62636.000
79.44000 62574.000
79.45500 62494.000
79.47000 62370.000
79.48500 62271.000
79.50000 62672.000
79.51500 62502.000
79.53000 62474.000
79.54500 62393.000
79.56000 62454.000
79.57500 62249.000
79.59000 62369.000
79.60500 62860.000
79.62000 62316.000
79.63500 62352.000
79.65000 62471.000
79.66500 62603.000
79.68000 62292.000
79.69500 62870.000
79.71000 62140.000
79.72500 62148.000
79.74000 62225.000
79.75500 62802.000
79.77000 62648.000
79.78500 62877.000
79.80000 62362.000
79.81500 62574.000
79.83000 62658.000
79.84500 62768.000
79.86000 62829.000
79.87500 62393.000
79.89000 62373.000
79.90500 62843.000
79.92000 62626.000
79.93500 62608.000
79.95000 62644.000
79.96500 62318.000
79.98000 62736.000
79.99500 62782.000
80.01000 62677.000
80.02500 62946.000
80.04000 62726.000
80.05500 63072.000
